#time(s),x(m),y(m),theta(m)
1317354880553871682, 5.990442,-0.049841,-0.023223
1317354880664720669, 5.960482,-0.040337,-0.028237
1317354880767974471, 6.132065,-0.033495,-0.034508
1317354880862357838, 7.000566,-0.047076,-0.048753
1317354880996253637, 7.480443,-0.030922,-0.064915
1317354881059946777, 8.076223,-0.013511,-0.079409
1317354881194202829, 8.807983,0.008953,-0.099046
1317354881259318946, 9.597687,0.036547,-0.116438
1317354881394015619, 10.349748,0.088098,-0.135541
1317354881456716449, 11.111275,0.154921,-0.150064
1317354881581461125, 12.464418,0.147786,-0.160166
1317354881705225943, 13.220082,0.236008,-0.173454
1317354881767827154, 13.895239,0.342136,-0.177258
1317354881828486496, 15.030521,0.371199,-0.175343
1317354881947481815, 16.151994,0.388377,-0.163863
1317354882072433530, 17.150290,0.410751,-0.150912
1317354882156854581, 18.180441,0.418358,-0.138620
1317354882264989698, 19.118794,0.436313,-0.137183
1317354882377165708, 20.119494,0.446634,-0.138256
1317354882459002108, 21.119894,0.453373,-0.136241
1317354882589519609, 22.046211,0.471963,-0.142727
1317354882680878321, 23.061966,0.471110,-0.139093
1317354882783846002, 24.010611,0.474563,-0.143880
1317354882874997913, 25.056262,0.455522,-0.148207
1317354882978388268, 26.036356,0.449681,-0.173866
1317354883098734653, 27.125656,0.418549,-0.192111
1317354883190683100, 28.248363,0.376388,-0.223125
1317354883304236765, 29.335492,0.340524,-0.262537
1317354883395374264, 30.574141,0.270736,-0.317417
1317354883603918029, 30.943088,0.559252,-0.381181
1317354883709457874, 32.126629,0.593977,-0.415550
1317354883814106647, 33.342555,0.602679,-0.443340
1317354883929518323, 34.522790,0.610709,-0.472464
1317354884020812147, 35.594973,0.662118,-0.503454
1317354884125018655, 36.731557,0.672814,-0.532061
1317354884261826744, 37.772675,0.729725,-0.562456
1317354884332915286, 38.884495,0.739412,-0.591209
1317354884462209430, 39.987652,0.742244,-0.622144
1317354884564619350, 41.004829,0.797007,-0.656038
1317354884656114196, 42.096331,0.793677,-0.690952
1317354884747377248, 43.108054,0.849224,-0.731618
1317354884866004289, 44.194661,0.838288,-0.774594
1317354884971831806, 45.203716,0.884126,-0.816760
1317354885075275490, 46.281998,0.845513,-0.864538
1317354885189246856, 47.375477,0.787070,-0.942697
1317354885270374368, 48.443881,0.780428,-1.035727
1317354885375388809, 49.610734,0.651970,-1.145013
1317354885503356241, 50.815235,0.544410,-1.285478
1317354885698919017, 52.041453,1.353919,-1.462018
1317354885790412199, 53.484660,1.218876,-1.512401
1317354885896425842, 54.907602,1.032744,-1.577326
1317354886104863027, 56.467627,1.882361,-1.668656
1317354886211214112, 57.951852,1.925882,-1.620116
1317354886314111723, 59.329989,1.908229,-1.555702
1317354886418951687, 60.620749,1.896774,-1.493637
1317354886536083268, 61.830408,1.987558,-1.436260
1317354886638430432, 63.013025,1.982955,-1.382196
1317354886729821299, 64.127767,2.071522,-1.327856
1317354886835873214, 65.247251,2.063859,-1.282117
1317354886952102353, 66.306378,2.148976,-1.238823
1317354887065594698, 67.390021,2.140588,-1.203633
1317354887147153351, 68.459340,2.120802,-1.172540
1317354887274672909, 69.482797,2.177047,-1.153315
1317354887366049214, 70.548548,2.136435,-1.137745
1317354887472328067, 71.574761,2.174264,-1.139966
1317354887588298934, 72.650846,2.116500,-1.145293
1317354887693412112, 73.738322,2.039282,-1.166470
1317354887785341331, 74.818040,2.032727,-1.209837
1317354887898219434, 75.977624,1.905495,-1.259580
1317354888012311285, 77.173266,1.821253,-1.333507
1317354888200991906, 78.325423,2.711148,-1.426485
1317354888303318659, 79.687463,2.684137,-1.393976
1317354888418879844, 80.974849,2.675739,-1.355857
1317354888524152885, 82.172059,2.775232,-1.311733
1317354888638842925, 83.349744,2.793662,-1.260931
1317354888751078905, 84.443964,2.910910,-1.208433
1317354888855232121, 85.540227,2.947787,-1.152870
1317354888916396944, 86.597098,2.986673,-1.093147
1317354889049927709, 87.572833,3.109931,-1.037437
1317354889149325848, 88.569513,3.155387,-0.974280
1317354889263314039, 89.476443,3.276787,-0.914288
1317354889348467603, 90.414162,3.326020,-0.848714
1317354889472343005, 91.256142,3.439153,-0.785510
1317354889554879552, 92.140823,3.483086,-0.717655
1317354889678520158, 93.001612,3.519667,-0.654204
1317354889767836595, 93.769662,3.599071,-0.594830
1317354889878611607, 94.600158,3.620245,-0.533858
1317354889985469242, 95.343469,3.673680,-0.480000
1317354890086702994, 96.159985,3.677837,-0.423880
1317354890188910697, 96.982814,3.674904,-0.378429
1317354890296942859, 97.742728,3.689594,-0.334431
1317354890501722857, 97.771008,3.937096,-0.301739
1317354890608644876, 98.572842,3.936775,-0.256836
1317354890723884363, 99.228503,3.944662,-0.208879
1317354890825393507, 99.896379,3.934958,-0.172191
1317354890917720961, 100.518157,3.917928,-0.134862
1317354891024515702, 101.037825,3.902078,-0.103633
1317354891138200367, 101.592330,3.874775,-0.078029
1317354891235469200, 102.061473,3.846570,-0.055629
1317354891357495140, 102.567639,3.811959,-0.038787
1317354891457375424, 103.052667,3.775996,-0.028262
1317354891577821594, 103.464847,3.738498,-0.018332
1317354891680183685, 103.913568,3.694216,-0.005553
1317354891774670510, 104.302188,3.641765,0.009740
1317354891887871959, 104.727853,3.582169,0.022697
1317354891973936579, 105.098085,3.515564,0.030119
1317354892068145664, 105.506235,3.442078,0.042625
1317354892173669183, 105.863304,3.355958,0.059403
1317354892287898798, 106.246603,3.261760,0.075611
1317354892395657390, 106.614517,3.157987,0.091772
1317354892508866171, 106.931349,3.037448,0.117931
1317354892633241519, 107.272249,2.909674,0.143296
1317354892719768574, 107.566391,2.763218,0.173741
1317354892813093745, 107.882825,2.609629,0.207123
1317354892927122635, 108.151184,2.433940,0.244838
1317354893029023357, 108.439577,2.253823,0.286620
1317354893139700449, 108.682315,2.048783,0.335670
1317354893246745702, 108.943644,1.843400,0.379869
1317354893335376558, 109.191466,1.625417,0.429574
1317354893449172197, 109.397936,1.374161,0.495916
1317354893542485735, 109.625289,1.119303,0.572347
1317354893656433016, 109.814247,0.828694,0.641725
1317354893747694126, 110.019979,0.542436,0.718789
1317354893873351094, 110.189582,0.217077,0.792575
1317354893958046060, 110.368108,-0.100798,0.863397
1317354894073379249, 110.511901,-0.466318,0.939474
1317354894167262635, 110.665847,-0.821682,1.016722
1317354894274458101, 110.812133,-1.191850,1.094995
1317354894376052910, 110.939990,-1.612378,1.181483
1317354894479171573, 111.070072,-2.015890,1.241237
1317354894596701831, 111.180938,-2.469000,1.300276
1317354894688367832, 111.292689,-2.900556,1.355967
1317354894783677101, 111.387640,-3.384296,1.402431
1317354894886110770, 111.473741,-3.847929,1.432962
1317354894998193843, 111.546613,-4.327649,1.464837
1317354895092220962, 111.603719,-4.863263,1.494436
1317354895196568521, 111.651622,-5.380191,1.522398
1317354895394464566, 111.706745,-6.385728,1.580069
1317354895506993682, 111.755214,-6.990994,1.606798
1317354895612100606, 111.786435,-7.572021,1.597776
1317354895727709838, 111.805494,-8.172562,1.592643
1317354895821297181, 111.818272,-8.837017,1.594269
1317354895915105680, 111.828650,-9.471149,1.603149
1317354896037095931, 111.840011,-10.118683,1.612482
1317354896119186939, 111.852415,-10.834129,1.614135
1317354896246233112, 111.853549,-11.513111,1.598113
1317354896338218105, 111.852611,-12.265843,1.591870
1317354896433255887, 111.854486,-12.976994,1.599689
1317354896524696385, 111.860040,-13.703590,1.606138
1317354896630503499, 111.861481,-14.502747,1.595382
1317354896735212507, 111.856624,-15.252289,1.586017
1317354896838870410, 111.847411,-16.077161,1.576525
1317354896956757208, 111.841606,-16.846327,1.581163
1317354897068799850, 111.835638,-17.623794,1.580739
1317354897182927035, 111.830629,-18.478212,1.580131
1317354897275526888, 111.820412,-19.272208,1.572177
1317354897372378783, 111.812102,-20.144197,1.574209
1317354897485306635, 111.803863,-20.950049,1.575506
1317354897586615830, 111.795748,-21.757042,1.576377
1317354897667687995, 111.789858,-22.639923,1.579272
1317354897806317588, 111.784753,-23.453222,1.582328
1317354897903373814, 111.781382,-24.343932,1.584205
1317354898007823008, 111.773343,-25.161633,1.579485
1317354898119690592, 111.763965,-25.978429,1.578417
1317354898224367979, 111.754950,-26.869181,1.578469
1317354898327426099, 111.744434,-27.679492,1.577060
1317354898422020107, 111.730616,-28.567425,1.572317
1317354898529265211, 111.713612,-29.374777,1.568467
1317354898641745404, 111.702626,-30.258016,1.576440
1317354898728995843, 111.686740,-31.062072,1.571280
1317354898847152607, 111.671292,-31.859632,1.571505
1317354898965013311, 111.659508,-32.726253,1.576196
1317354899046902074, 111.650384,-33.507913,1.581700
1317354899152070108, 111.638166,-34.363477,1.578685
1317354899259565600, 111.624373,-35.141223,1.579056
1317354899382977083, 111.609718,-35.914866,1.579701
1317354899477958431, 111.594543,-36.755079,1.580239
1317354899580700036, 111.575225,-37.512854,1.577388
1317354899665111141, 111.553971,-38.340965,1.575932
1317354899786831857, 111.531981,-39.088762,1.577430
1317354899882025156, 111.511207,-39.905873,1.579961
1317354899997331682, 111.487705,-40.642529,1.578727
1317354900091077989, 111.462923,-41.371796,1.577847
1317354900186615381, 111.438400,-42.168510,1.578010
1317354900308486104, 111.413571,-42.882948,1.579044
1317354900415684327, 111.391591,-43.658505,1.582820
1317354900518244510, 111.368879,-44.353898,1.583767
1317354900643000069, 111.349415,-45.115242,1.588027
1317354900736947916, 111.328405,-45.800993,1.588261
1317354900851382193, 111.307333,-46.484047,1.589025
1317354900936379919, 111.284260,-47.237073,1.585557
1317354901048033764, 111.258208,-47.910173,1.583580
1317354901134258548, 111.233649,-48.639996,1.585044
1317354901215905525, 111.206862,-49.288930,1.584422
1317354901341622629, 111.181209,-50.001548,1.585510
1317354901437330229, 111.154793,-50.647156,1.587708
1317354901528844686, 111.125337,-51.293506,1.585808
1317354901630002744, 111.095405,-52.004865,1.587107
1317354901737632630, 111.063686,-52.650639,1.591650
1317354901842838297, 111.028751,-53.361874,1.591114
1317354901944541409, 110.986761,-54.007011,1.588136
1317354902048563778, 110.942851,-54.718969,1.588611
1317354902155547427, 110.898459,-55.370526,1.594937
1317354902259418060, 110.849972,-56.025984,1.594838
1317354902386806630, 110.793924,-56.747013,1.586855
1317354902481815841, 110.729875,-57.409292,1.582954
1317354902584574895, 110.667468,-58.136976,1.592489
1317354902676714291, 110.600680,-58.811079,1.595843
1317354902802517514, 110.524197,-59.557715,1.586876
1317354903001059751, 110.452456,-60.903501,1.588424
1317354903125337992, 110.378674,-61.664844,1.599487
1317354903234006920, 110.301835,-62.366664,1.596722
1317354903323610051, 110.230021,-63.141024,1.599137
1317354903429427093, 110.159205,-63.853800,1.601842
1317354903521658308, 110.085633,-64.645006,1.594706
1317354903637563415, 110.009763,-65.368087,1.593917
1317354903773011695, 109.937080,-66.090614,1.598704
1317354903867123644, 109.869059,-66.884576,1.602802
1317354903958883432, 109.799601,-67.610064,1.605489
1317354904063588765, 109.727474,-68.409479,1.600378
1317354904157936573, 109.649891,-69.140069,1.597156
1317354904261749790, 109.574274,-69.871863,1.600519
1317354904365954900, 109.494726,-70.672598,1.592683
1317354904481266152, 109.403106,-71.405768,1.578656
1317354904573680940, 109.316019,-72.208907,1.586091
1317354904682011721, 109.223668,-72.945635,1.583542
1317354904783715780, 109.135750,-73.754503,1.591841
1317354904898337067, 109.043316,-74.504408,1.590908
1317354904980763865, 108.945413,-75.259006,1.587445
1317354905096450915, 108.838728,-76.088899,1.580494
1317354905303284095, 108.729917,-77.659816,1.578443
1317354905427317898, 108.617636,-78.431802,1.580011
1317354905532253229, 108.508960,-79.282031,1.582422
1317354905629604808, 108.403326,-80.065932,1.587277
1317354905733830912, 108.295704,-80.855983,1.584074
1317354905835249441, 108.191149,-81.724085,1.586489
1317354905936491522, 108.087997,-82.520083,1.589026
1317354906026686366, 107.983326,-83.396207,1.584386
1317354906148364670, 107.880870,-84.201473,1.587590
1317354906254498171, 107.782584,-85.086582,1.590397
1317354906356035523, 107.682235,-85.900385,1.587785
1317354906478317006, 107.582625,-86.716121,1.586826
1317354906563832913, 107.487396,-87.611733,1.588790
1317354906652192836, 107.387896,-88.432646,1.582861
1317354906762095215, 107.287433,-89.334624,1.579492
1317354906874697525, 107.187552,-90.161368,1.579631
1317354906946104237, 107.088746,-91.071087,1.579401
1317354907077628786, 106.986525,-91.903935,1.576302
1317354907181916578, 106.879522,-92.735322,1.571326
1317354907397422621, 106.764197,-94.467441,1.567575
1317354907494800723, 106.655250,-95.376393,1.566023
1317354907596125692, 106.554183,-96.203671,1.570808
1317354907677363445, 106.458589,-97.112042,1.574250
1317354907795746031, 106.367881,-97.938489,1.577858
1317354907886901226, 106.280509,-98.761738,1.579886
1317354907989089426, 106.194861,-99.661515,1.580509
1317354908117654299, 106.109917,-100.474627,1.582939
1317354908216896827, 106.028149,-101.363476,1.586379
1317354908316608967, 105.943078,-102.166715,1.585098
1317354908441601195, 105.859994,-103.047346,1.587306
1317354908548738183, 105.774304,-103.846121,1.586287
1317354908670793969, 105.686571,-104.641549,1.584547
1317354908753950083, 105.598271,-105.511552,1.582976
1317354908856035110, 105.509073,-106.294714,1.583793
1317354908965867065, 105.419984,-107.151147,1.584239
1317354909067356539, 105.331065,-107.923523,1.588064
1317354909151785270, 105.241330,-108.690928,1.589814
1317354909243076541, 105.152641,-109.528895,1.591931
1317354909367564176, 105.060203,-110.283594,1.591943
1317354909464683471, 104.968328,-111.109456,1.593284
1317354909566370025, 104.871674,-111.855185,1.592593
1317354909657633708, 104.773168,-112.674275,1.590812
1317354909761807023, 104.671443,-113.415853,1.590368
1317354909890880919, 104.568241,-114.153502,1.591489
1317354909972107663, 104.463851,-114.960000,1.591993
1317354910097773491, 104.354932,-115.689208,1.591380
1317354910178928719, 104.244889,-116.488171,1.591372
1317354910307744470, 104.130211,-117.210047,1.591548
1317354910429249062, 104.012668,-118.001538,1.590356
1317354910516090096, 103.885135,-118.716210,1.584322
1317354910621248581, 103.748497,-119.425719,1.580466
1317354910804054470, 103.616662,-120.942052,1.583522
1317354910933559831, 103.477651,-121.717297,1.583654
1317354911038530366, 103.342941,-122.416602,1.591278
1317354911141230323, 103.214559,-123.184747,1.600302
1317354911235694702, 103.077748,-123.878940,1.596028
1317354911341427823, 102.936522,-124.570069,1.595974
1317354911444538551, 102.797220,-125.324803,1.603095
1317354911558876794, 102.649553,-126.005321,1.603416
1317354911652172617, 102.492451,-126.752215,1.598045
1317354911774527316, 102.330784,-127.426098,1.606001
1317354911835218941, 102.165721,-128.168617,1.609159
1317354911941262159, 101.989294,-128.839437,1.608918
1317354912055927240, 101.802812,-129.506725,1.605554
1317354912173607601, 101.610554,-130.238391,1.603776
1317354912264697772, 101.410245,-130.899001,1.604234
1317354912367798983, 101.210176,-131.624242,1.608196
1317354912487978611, 101.002741,-132.277531,1.608289
1317354912603693459, 100.796591,-132.995106,1.611890
1317354912705792130, 100.584444,-133.642199,1.611760
1317354912786757761, 100.368391,-134.284148,1.610037
1317354912889908474, 100.151455,-134.986032,1.609481
1317354912992898961, 99.925861,-135.614020,1.607163
1317354913205002650, 99.705439,-136.987933,1.596966
1317354913309970046, 99.490126,-137.675233,1.616300
1317354913412178049, 99.286157,-138.294138,1.625527
1317354913537876630, 99.085828,-138.910689,1.620834
1317354913643545793, 98.898389,-139.584758,1.625964
1317354913724832701, 98.712315,-140.190118,1.625706
1317354913843117087, 98.537724,-140.857139,1.629871
1317354913967063397, 98.366449,-141.456681,1.634784
1317354914058519639, 98.204969,-142.116042,1.637631
1317354914153519095, 98.040572,-142.708899,1.633422
1317354914257181474, 97.882064,-143.297266,1.637513
1317354914364524698, 97.735874,-143.942628,1.643556
1317354914476171922, 97.590160,-144.521552,1.642963
1317354914557747722, 97.455631,-145.156706,1.644463
1317354914675629513, 97.320668,-145.727078,1.642793
1317354914766800169, 97.191417,-146.294310,1.642000
1317354914868047793, 97.073646,-146.918306,1.641413
1317354914976301456, 96.963841,-147.481926,1.647077
1317354915093717827, 96.866690,-148.100403,1.646366
1317354915185356716, 96.771754,-148.658184,1.641912
1317354915301841235, 96.684093,-149.212999,1.636917
1317354915382975757, 96.610487,-149.818785,1.635570
1317354915495695235, 96.546553,-150.364361,1.636956
1317354915598753659, 96.492665,-150.961922,1.627544
1317354915725144812, 96.442665,-151.500568,1.618667
1317354915822218744, 96.407706,-152.091356,1.621306
1317354915913896101, 96.376804,-152.624433,1.616158
1317354916031712893, 96.348880,-153.154684,1.606568
1317354916133619436, 96.323769,-153.735358,1.597762
1317354916235075668, 96.299287,-154.260283,1.594132
1317354916326525259, 96.280077,-154.834719,1.598156
1317354916431790375, 96.254080,-155.353737,1.588305
1317354916536092511, 96.224295,-155.868324,1.583466
1317354916643181101, 96.190451,-156.431030,1.579562
1317354916746620053, 96.153946,-156.937170,1.582382
1317354916861462606, 96.109698,-157.492663,1.577000
1317354916952660516, 96.057582,-157.992230,1.574434
1317354917056518178, 95.997430,-158.539862,1.571605
1317354917165817465, 95.932169,-159.030237,1.578304
1317354917258393315, 95.865243,-159.513255,1.593893
1317354917373324107, 95.797719,-160.038165,1.607858
1317354917465095916, 95.729023,-160.497805,1.628539
1317354917580587363, 95.658036,-160.993391,1.635673
1317354917665907938, 95.576526,-161.419058,1.638642
1317354917768293155, 95.483293,-161.823582,1.631063
1317354917864541630, 95.384073,-162.245587,1.627868
1317354917976569598, 95.278446,-162.573152,1.635206
1317354918082897897, 95.215227,-163.390992,1.649239
1317354918185119597, 95.130456,-164.189845,1.634843
1317354918291837023, 95.053425,-164.982879,1.648262
1317354918393549021, 94.935868,-165.267327,1.659317
1317354918498505683, 94.810581,-165.575573,1.651175
1317354918614741594, 94.741180,-166.410719,1.669682
1317354918716362233, 94.625927,-166.807198,1.678274
1317354918821754908, 94.505744,-167.189041,1.682507
1317354918926134685, 94.378510,-167.596430,1.671683
1317354919029723502, 94.255197,-168.070902,1.675994
1317354919138038990, 94.123515,-168.513903,1.677558
1317354919239391398, 93.994296,-169.014221,1.681276
1317354919353816764, 93.848464,-169.478839,1.664662
1317354919449008594, 93.711742,-170.000215,1.681399
1317354919553855064, 93.562505,-170.488812,1.672513
1317354919701262588, 93.408000,-170.988500,1.669626
1317354919772306493, 93.255618,-171.543092,1.671017
1317354919876084569, 93.099535,-172.056683,1.679558
1317354919992715544, 92.946133,-172.625481,1.680852
1317354920084063114, 92.782800,-173.152736,1.674463
1317354920187757580, 92.621843,-173.732785,1.671933
1317354920308797250, 92.458196,-174.265012,1.677792
1317354920430633889, 92.295615,-174.796849,1.679616
1317354920512103098, 92.137862,-175.379665,1.677672
1317354920626000780, 91.972397,-175.909878,1.671660
1317354920733961025, 91.812047,-176.492438,1.668612
1317354920815371307, 91.652402,-177.020110,1.675638
1317354920927930568, 91.505689,-177.594153,1.684438
1317354921033008940, 91.355436,-178.113479,1.683754
1317354921148044465, 91.204221,-178.626399,1.676128
1317354921243277152, 91.065798,-179.184605,1.680716
1317354921365593125, 90.928382,-179.679017,1.684327
1317354921464328715, 90.801715,-180.219389,1.681655
1317354921576915534, 90.675794,-180.697360,1.682329
1317354921674109955, 90.556931,-181.167081,1.682111
1317354921784017137, 90.451866,-181.679061,1.682916
1317354921888595818, 90.347366,-182.126809,1.678785
1317354922005650813, 90.257714,-182.613755,1.677797
