#time(s),x(m),y(m),theta(m)
1317354880553871682, 3.352434,0.018636,-0.000998
1317354880664720669, 3.946255,0.025298,-0.000139
1317354880767974471, 4.523500,0.031022,0.000438
1317354880862357838, 5.125369,0.043957,-0.000264
1317354880996253637, 6.325220,0.080332,-0.000679
1317354881059946777, 6.952969,0.097258,0.000109
1317354881194202829, 8.241187,0.129059,-0.000497
1317354881259318946, 8.927630,0.146213,0.000039
1317354881394015619, 10.277621,0.184143,-0.000325
1317354881456716449, 10.992485,0.206237,0.000084
1317354881581461125, 12.491694,0.250154,-0.000091
1317354881705225943, 14.037548,0.291230,-0.000182
1317354881767827154, 14.843033,0.310740,0.000460
1317354881828486496, 15.656796,0.330795,-0.000577
1317354881947481815, 16.485875,0.359878,-0.000087
1317354882072433530, 17.333415,0.379396,0.000291
1317354882156854581, 18.192175,0.393380,0.001001
1317354882264989698, 19.075137,0.417889,0.000180
1317354882377165708, 19.969094,0.447310,-0.000406
1317354882459002108, 20.889918,0.475519,0.000424
1317354882589519609, 21.819307,0.508054,-0.000968
1317354882680878321, 22.768424,0.538624,0.000443
1317354882783846002, 23.723228,0.572545,-0.000102
1317354882874997913, 24.689966,0.604577,0.001350
1317354882978388268, 25.658172,0.631694,-0.000942
1317354883098734653, 26.641682,0.659827,0.000394
1317354883190683100, 27.630753,0.696572,-0.000108
1317354883304236765, 28.626747,0.722336,0.000421
1317354883395374264, 29.659231,0.751581,-0.000545
1317354883603918029, 31.656636,0.811525,0.000027
1317354883709457874, 32.709205,0.835874,-0.000239
1317354883814106647, 33.753904,0.869577,0.000023
1317354883929518323, 34.805038,0.897304,0.000047
1317354884020812147, 35.867182,0.928481,0.000054
1317354884125018655, 36.922684,0.965617,-0.000036
1317354884261826744, 37.990053,1.001048,0.000112
1317354884332915286, 39.069051,1.032267,0.000017
1317354884462209430, 40.142882,1.077214,-0.000112
1317354884564619350, 41.212992,1.115534,0.000209
1317354884656114196, 42.292509,1.151649,0.000062
1317354884747377248, 43.377739,1.189650,0.000124
1317354884866004289, 44.441895,1.233177,-0.000776
1317354884971831806, 45.513689,1.274281,0.000342
1317354885075275490, 46.588546,1.317514,0.001415
1317354885189246856, 47.673776,1.353606,-0.000380
1317354885270374368, 48.754311,1.389862,-0.000061
1317354885375388809, 49.839855,1.430770,-0.000106
1317354885503356241, 50.940953,1.476673,0.000281
1317354885698919017, 53.049351,1.545137,-0.001876
1317354885790412199, 54.142676,1.581166,-0.000188
1317354885896425842, 55.235386,1.612491,0.000130
1317354886104863027, 57.352483,1.687715,-0.000677
1317354886211214112, 58.460559,1.721909,-0.000006
1317354886314111723, 59.550268,1.756499,0.000142
1317354886418951687, 60.638012,1.783706,0.000024
1317354886536083268, 61.715631,1.818578,0.000431
1317354886638430432, 62.786937,1.854075,-0.000786
1317354886729821299, 63.862140,1.897972,0.000561
1317354886835873214, 64.951176,1.927625,-0.000528
1317354886952102353, 66.035508,1.976016,0.000487
1317354887065594698, 67.126518,2.009708,-0.000410
1317354887147153351, 68.209725,2.048962,0.000084
1317354887274672909, 69.293270,2.083635,0.000120
1317354887366049214, 70.401193,2.114444,0.000510
1317354887472328067, 71.490996,2.151230,-0.000210
1317354887588298934, 72.569177,2.180862,0.000086
1317354887693412112, 73.652694,2.214302,0.000286
1317354887785341331, 74.743949,2.249773,-0.000434
1317354887898219434, 75.815744,2.294510,-0.000011
1317354888012311285, 76.917920,2.333999,0.000192
1317354888200991906, 79.026412,2.416080,-0.000691
1317354888303318659, 80.116972,2.454872,0.000055
1317354888418879844, 81.187232,2.495451,-0.000243
1317354888524152885, 82.232359,2.539554,0.000339
1317354888638842925, 83.287544,2.577751,-0.000054
1317354888751078905, 84.325477,2.617150,0.000457
1317354888855232121, 85.349383,2.652741,-0.000268
1317354888916396944, 86.372106,2.693950,0.000318
1317354889049927709, 87.370747,2.741851,-0.000012
1317354889149325848, 88.354007,2.782155,0.000412
1317354889263314039, 89.314310,2.818642,0.000319
1317354889348467603, 90.242856,2.863917,0.000532
1317354889472343005, 91.149606,2.911924,0.000450
1317354889554879552, 92.042459,2.962926,0.000909
1317354889678520158, 92.905469,3.009787,0.000966
1317354889767836595, 93.744371,3.059489,0.000824
1317354889878611607, 94.558886,3.113623,0.001350
1317354889985469242, 95.343804,3.163475,0.000964
1317354890086702994, 96.102528,3.214041,0.001919
1317354890188910697, 96.834471,3.274000,0.001344
1317354890296942859, 97.544301,3.328229,0.002297
1317354890501722857, 98.815834,3.443049,0.000585
1317354890608644876, 99.435006,3.496265,0.001584
1317354890723884363, 100.022416,3.545920,0.002688
1317354890825393507, 100.576288,3.596066,0.001538
1317354890917720961, 101.111378,3.633128,0.001763
1317354891024515702, 101.620226,3.667485,0.001332
1317354891138200367, 102.110609,3.686168,0.000775
1317354891235469200, 102.573394,3.701509,0.000537
1317354891357495140, 103.014853,3.709709,0.000292
1317354891457375424, 103.439886,3.702951,-0.000324
1317354891577821594, 103.848453,3.691606,-0.000542
1317354891680183685, 104.241080,3.668801,0.000086
1317354891774670510, 104.635033,3.638180,0.001692
1317354891887871959, 105.018203,3.597208,0.003893
1317354891973936579, 105.391826,3.537599,0.005994
1317354892068145664, 105.761571,3.474230,0.010301
1317354892173669183, 106.117933,3.395982,0.016718
1317354892287898798, 106.467515,3.298018,0.024701
1317354892395657390, 106.812111,3.183999,0.034205
1317354892508866171, 107.147031,3.065641,0.047981
1317354892633241519, 107.468255,2.935703,0.063950
1317354892719768574, 107.786067,2.789589,0.083951
1317354892813093745, 108.088558,2.626950,0.107296
1317354892927122635, 108.379488,2.434447,0.135120
1317354893029023357, 108.661148,2.244109,0.166827
1317354893139700449, 108.932204,2.047393,0.204443
1317354893246745702, 109.183907,1.835553,0.246042
1317354893335376558, 109.426519,1.604255,0.294840
1317354893449172197, 109.663814,1.367385,0.353394
1317354893542485735, 109.899348,1.102564,0.419906
1317354893656433016, 110.114691,0.806225,0.490487
1317354893747694126, 110.313232,0.506943,0.571057
1317354893873351094, 110.505382,0.195680,0.658605
1317354893958046060, 110.680672,-0.129464,0.751152
1317354894073379249, 110.829384,-0.479645,0.849546
1317354894167262635, 110.979811,-0.837935,0.948723
1317354894274458101, 111.123183,-1.205928,1.044060
1317354894376052910, 111.236527,-1.593521,1.136919
1317354894479171573, 111.353337,-2.002203,1.215413
1317354894596701831, 111.459546,-2.423094,1.283522
1317354894688367832, 111.554320,-2.844523,1.339350
1317354894783677101, 111.640516,-3.289855,1.384696
1317354894886110770, 111.715761,-3.760047,1.421031
1317354894998193843, 111.777962,-4.241997,1.453947
1317354895092220962, 111.825661,-4.754736,1.482466
1317354895196568521, 111.853019,-5.275205,1.507855
1317354895394464566, 111.862853,-6.367556,1.551561
1317354895506993682, 111.878120,-6.944171,1.568541
1317354895612100606, 111.888781,-7.539284,1.576666
1317354895727709838, 111.891420,-8.172923,1.583089
1317354895821297181, 111.880373,-8.826606,1.586227
1317354895915105680, 111.875508,-9.492022,1.586895
1317354896037095931, 111.875234,-10.170730,1.586173
1317354896119186939, 111.865880,-10.855767,1.585168
1317354896246233112, 111.859614,-11.559621,1.581846
1317354896338218105, 111.865229,-12.282579,1.580641
1317354896433255887, 111.866638,-13.015530,1.581435
1317354896524696385, 111.858809,-13.768573,1.582038
1317354896630503499, 111.855357,-14.545134,1.579975
1317354896735212507, 111.845091,-15.327928,1.579970
1317354896838870410, 111.842611,-16.120982,1.579669
1317354896956757208, 111.842449,-16.907110,1.582210
1317354897068799850, 111.830348,-17.707168,1.583108
1317354897182927035, 111.820295,-18.521605,1.584646
1317354897275526888, 111.818592,-19.337105,1.584738
1317354897372378783, 111.818541,-20.159918,1.586570
1317354897485306635, 111.809218,-20.983746,1.587340
1317354897586615830, 111.802110,-21.822947,1.588352
1317354897667687995, 111.799784,-22.672262,1.589769
1317354897806317588, 111.793322,-23.532330,1.590906
1317354897903373814, 111.782255,-24.387194,1.591491
1317354898007823008, 111.778756,-25.233510,1.590974
1317354898119690592, 111.767238,-26.090881,1.590858
1317354898224367979, 111.753021,-26.927369,1.590276
1317354898327426099, 111.740835,-27.756316,1.589674
1317354898422020107, 111.730305,-28.585090,1.588775
1317354898529265211, 111.722159,-29.424337,1.587073
1317354898641745404, 111.705470,-30.265227,1.588075
1317354898728995843, 111.684331,-31.099197,1.585941
1317354898847152607, 111.676554,-31.916123,1.586374
1317354898965013311, 111.672156,-32.738740,1.587819
1317354899046902074, 111.663278,-33.544768,1.590274
1317354899152070108, 111.650552,-34.350153,1.591304
1317354899259565600, 111.637887,-35.160113,1.593238
1317354899382977083, 111.625777,-35.965148,1.595106
1317354899477958431, 111.605866,-36.759559,1.596868
1317354899580700036, 111.587022,-37.551013,1.598391
1317354899665111141, 111.568868,-38.340452,1.600004
1317354899786831857, 111.546233,-39.125878,1.601943
1317354899882025156, 111.521616,-39.909002,1.603264
1317354899997331682, 111.493597,-40.680144,1.603848
1317354900091077989, 111.467137,-41.437099,1.604998
1317354900186615381, 111.443737,-42.190061,1.606130
1317354900308486104, 111.422049,-42.939420,1.607014
1317354900415684327, 111.396743,-43.678767,1.608381
1317354900518244510, 111.380378,-44.396044,1.608592
1317354900643000069, 111.353048,-45.097275,1.609307
1317354900736947916, 111.333659,-45.783397,1.609312
1317354900851382193, 111.311796,-46.478547,1.609606
1317354900936379919, 111.287005,-47.182196,1.609106
1317354901048033764, 111.261536,-47.880386,1.608978
1317354901134258548, 111.239062,-48.573265,1.609707
1317354901215905525, 111.212014,-49.258258,1.609735
1317354901341622629, 111.192816,-49.941168,1.609697
1317354901437330229, 111.171872,-50.610968,1.610332
1317354901528844686, 111.149285,-51.285079,1.610933
1317354901630002744, 111.131970,-51.963720,1.614023
1317354901737632630, 111.105141,-52.639661,1.619248
1317354901842838297, 111.064878,-53.293420,1.624285
1317354901944541409, 111.020152,-53.957160,1.629567
1317354902048563778, 110.976506,-54.630218,1.635417
1317354902155547427, 110.937707,-55.299094,1.641909
1317354902259418060, 110.883622,-55.980162,1.646388
1317354902386806630, 110.837734,-56.669121,1.649128
1317354902481815841, 110.786627,-57.358213,1.651638
1317354902584574895, 110.718866,-58.063962,1.655380
1317354902676714291, 110.650747,-58.775036,1.657342
1317354902802517514, 110.590250,-59.499413,1.656852
1317354903001059751, 110.453733,-60.940376,1.656663
1317354903125337992, 110.374397,-61.674473,1.660142
1317354903234006920, 110.289740,-62.414429,1.659403
1317354903323610051, 110.221982,-63.163119,1.660463
1317354903429427093, 110.158433,-63.914344,1.661555
1317354903521658308, 110.087709,-64.677916,1.660102
1317354903637563415, 110.012877,-65.421238,1.660261
1317354903773011695, 109.944478,-66.156145,1.661759
1317354903867123644, 109.881190,-66.895736,1.663378
1317354903958883432, 109.812209,-67.635478,1.665461
1317354904063588765, 109.737788,-68.387431,1.666122
1317354904157936573, 109.654578,-69.131402,1.667208
1317354904261749790, 109.572325,-69.880303,1.670138
1317354904365954900, 109.498794,-70.629815,1.670603
1317354904481266152, 109.421208,-71.383163,1.669142
1317354904573680940, 109.339279,-72.160239,1.672404
1317354904682011721, 109.252942,-72.922458,1.672044
1317354904783715780, 109.160373,-73.695728,1.674395
1317354904898337067, 109.073201,-74.485078,1.674873
1317354904980763865, 108.989959,-75.273256,1.676060
1317354905096450915, 108.898050,-76.065468,1.676761
1317354905303284095, 108.719022,-77.643140,1.677210
1317354905427317898, 108.608187,-78.445618,1.680769
1317354905532253229, 108.506764,-79.254157,1.681469
1317354905629604808, 108.399684,-80.058586,1.682827
1317354905733830912, 108.295533,-80.884128,1.681591
1317354905835249441, 108.185294,-81.722700,1.681727
1317354905936491522, 108.078985,-82.551647,1.682088
1317354906026686366, 107.976315,-83.384416,1.680189
1317354906148364670, 107.876934,-84.229911,1.679594
1317354906254498171, 107.769035,-85.083654,1.678593
1317354906356035523, 107.668231,-85.934479,1.676853
1317354906478317006, 107.569817,-86.776580,1.675480
1317354906563832913, 107.469498,-87.618063,1.674926
1317354906652192836, 107.377650,-88.467507,1.672912
1317354906762095215, 107.276286,-89.325573,1.671544
1317354906874697525, 107.182237,-90.189756,1.670738
1317354906946104237, 107.090841,-91.060319,1.670189
1317354907077628786, 106.993608,-91.931267,1.669662
1317354907181916578, 106.901050,-92.790227,1.668579
1317354907397422621, 106.714471,-94.529585,1.664763
1317354907494800723, 106.619935,-95.402843,1.666500
1317354907596125692, 106.530734,-96.250255,1.666947
1317354907677363445, 106.437151,-97.105896,1.666130
1317354907795746031, 106.351472,-97.963574,1.665869
1317354907886901226, 106.276470,-98.833786,1.665572
1317354907989089426, 106.199921,-99.691153,1.665668
1317354908117654299, 106.119487,-100.531950,1.666577
1317354908216896827, 106.037108,-101.360232,1.667845
1317354908316608967, 105.954628,-102.191119,1.667802
1317354908441601195, 105.863738,-103.022749,1.668554
1317354908548738183, 105.780034,-103.854542,1.668834
1317354908670793969, 105.688996,-104.681199,1.669204
1317354908753950083, 105.603363,-105.507839,1.669483
1317354908856035110, 105.521952,-106.323818,1.670406
1317354908965867065, 105.437642,-107.141419,1.671209
1317354909067356539, 105.352766,-107.939802,1.673460
1317354909151785270, 105.263755,-108.736222,1.675575
1317354909243076541, 105.172245,-109.519365,1.678199
1317354909367564176, 105.081750,-110.303586,1.680395
1317354909464683471, 104.991821,-111.080725,1.683201
1317354909566370025, 104.891008,-111.853406,1.685146
1317354909657633708, 104.785542,-112.622766,1.686783
1317354909761807023, 104.693948,-113.398002,1.688460
1317354909890880919, 104.598961,-114.167069,1.690204
1317354909972107663, 104.487665,-114.936664,1.692137
1317354910097773491, 104.381079,-115.703589,1.694402
1317354910178928719, 104.276310,-116.469821,1.696524
1317354910307744470, 104.164235,-117.228235,1.698055
1317354910429249062, 104.052496,-117.985479,1.699785
1317354910516090096, 103.947577,-118.730542,1.701223
1317354910621248581, 103.825283,-119.476879,1.702451
1317354910804054470, 103.593466,-120.962224,1.703123
1317354910933559831, 103.480800,-121.694603,1.707380
1317354911038530366, 103.366745,-122.428164,1.710115
1317354911141230323, 103.245100,-123.162316,1.714344
1317354911235694702, 103.121154,-123.884420,1.716817
1317354911341427823, 102.991141,-124.610446,1.721138
1317354911444538551, 102.859083,-125.324796,1.728451
1317354911558876794, 102.724487,-126.036233,1.735590
1317354911652172617, 102.574779,-126.735716,1.741783
1317354911774527316, 102.414728,-127.439875,1.751210
1317354911835218941, 102.249053,-128.145881,1.758605
1317354911941262159, 102.065437,-128.843075,1.765216
1317354912055927240, 101.870999,-129.532923,1.770631
1317354912173607601, 101.670732,-130.225872,1.775735
1317354912264697772, 101.462319,-130.927753,1.780167
1317354912367798983, 101.258059,-131.629453,1.784163
1317354912487978611, 101.044027,-132.307261,1.786240
1317354912603693459, 100.826663,-132.993844,1.787847
1317354912705792130, 100.612025,-133.674744,1.788492
1317354912786757761, 100.401113,-134.353465,1.788763
1317354912889908474, 100.194799,-135.012545,1.788701
1317354912992898961, 99.998525,-135.665329,1.788193
1317354913205002650, 99.609889,-136.979093,1.779722
1317354913309970046, 99.405663,-137.632604,1.785888
1317354913412178049, 99.216424,-138.286428,1.785841
1317354913537876630, 99.025152,-138.932756,1.782447
1317354913643545793, 98.843864,-139.569323,1.780999
1317354913724832701, 98.662810,-140.198224,1.777367
1317354913843117087, 98.494718,-140.825551,1.774516
1317354913967063397, 98.326955,-141.450992,1.772066
1317354914058519639, 98.159148,-142.073877,1.770029
1317354914153519095, 98.004577,-142.695416,1.766526
1317354914257181474, 97.840123,-143.308809,1.764676
1317354914364524698, 97.677085,-143.924072,1.763241
1317354914476171922, 97.530114,-144.530364,1.760607
1317354914557747722, 97.399437,-145.129847,1.758649
1317354914675629513, 97.255366,-145.705477,1.755532
1317354914766800169, 97.113383,-146.289447,1.751988
1317354914868047793, 96.983513,-146.880551,1.747442
1317354914976301456, 96.873987,-147.470288,1.743253
1317354915093717827, 96.768452,-148.050361,1.736316
1317354915185356716, 96.665976,-148.629291,1.728264
1317354915301841235, 96.569263,-149.213625,1.718857
1317354915382975757, 96.481758,-149.795245,1.708696
1317354915495695235, 96.421936,-150.372175,1.697177
1317354915598753659, 96.368743,-150.935501,1.681144
1317354915725144812, 96.333823,-151.499773,1.662930
1317354915822218744, 96.307464,-152.060486,1.646205
1317354915913896101, 96.291885,-152.616875,1.627517
1317354916031712893, 96.285245,-153.166504,1.608826
1317354916133619436, 96.281564,-153.717426,1.593008
1317354916235075668, 96.281521,-154.269183,1.582142
1317354916326525259, 96.278113,-154.812912,1.579095
1317354916431790375, 96.264487,-155.359701,1.580227
1317354916536092511, 96.247293,-155.904127,1.590075
1317354916643181101, 96.226930,-156.441676,1.601928
1317354916746620053, 96.205339,-156.971669,1.615129
1317354916861462606, 96.171503,-157.511385,1.625316
1317354916952660516, 96.123683,-158.043418,1.636805
1317354917056518178, 96.084782,-158.569189,1.648820
1317354917165817465, 96.032648,-159.084121,1.662659
1317354917258393315, 95.965643,-159.597539,1.676289
1317354917373324107, 95.897615,-160.105922,1.687369
1317354917465095916, 95.822238,-160.617671,1.699947
1317354917580587363, 95.744144,-161.132614,1.709347
1317354917665907938, 95.658340,-161.629628,1.718825
1317354917768293155, 95.561460,-162.126775,1.725424
1317354917864541630, 95.464107,-162.622853,1.731693
1317354917976569598, 95.370331,-163.109040,1.737744
1317354918082897897, 95.272351,-163.597163,1.743921
1317354918185119597, 95.172176,-164.088988,1.741940
1317354918291837023, 95.072340,-164.572762,1.745865
1317354918393549021, 94.975367,-165.029374,1.748154
1317354918498505683, 94.860366,-165.494462,1.745242
1317354918614741594, 94.751068,-165.967880,1.749702
1317354918716362233, 94.636847,-166.431335,1.751553
1317354918821754908, 94.521324,-166.906717,1.754724
1317354918926134685, 94.407996,-167.384752,1.755618
1317354919029723502, 94.291523,-167.874954,1.760244
1317354919138038990, 94.164322,-168.377429,1.763431
1317354919239391398, 94.030178,-168.890982,1.768459
1317354919353816764, 93.890186,-169.413479,1.767885
1317354919449008594, 93.751402,-169.938742,1.775867
1317354919553855064, 93.610356,-170.469834,1.776880
1317354919701262588, 93.450164,-171.002686,1.779776
1317354919772306493, 93.293310,-171.536716,1.782342
1317354919876084569, 93.143192,-172.084772,1.786016
1317354919992715544, 92.969189,-172.647371,1.788042
1317354920084063114, 92.806177,-173.214914,1.788748
1317354920187757580, 92.635240,-173.769194,1.789852
1317354920308797250, 92.462574,-174.314459,1.792004
1317354920430633889, 92.300023,-174.872903,1.792788
1317354920512103098, 92.130750,-175.427698,1.792642
1317354920626000780, 91.962824,-175.976099,1.791606
1317354920733961025, 91.794456,-176.535987,1.790315
1317354920815371307, 91.632285,-177.083540,1.789942
1317354920927930568, 91.477072,-177.622639,1.789672
1317354921033008940, 91.321270,-178.168956,1.787937
1317354921148044465, 91.160897,-178.709567,1.784634
1317354921243277152, 91.010762,-179.243589,1.783671
1317354921365593125, 90.865437,-179.756422,1.781979
1317354921464328715, 90.732383,-180.263435,1.779039
1317354921576915534, 90.601257,-180.756021,1.776942
1317354921674109955, 90.479222,-181.241871,1.773986
1317354921784017137, 90.354459,-181.705426,1.770910
1317354921888595818, 90.239345,-182.152259,1.766032
1317354922005650813, 90.135617,-182.596858,1.760797
1317354922119669933, 90.045573,-183.022189,1.754121
