#time(s),x(m),y(m),theta(m)
1317357627076760860, 2.062974,0.431937,0.029832
1317357627180372440, 2.259710,0.517743,0.038479
1317357627282525874, 2.464748,0.614594,0.048774
1317357627377079269, 2.671188,0.719090,0.061295
1317357627481286930, 2.872094,0.828081,0.075630
1317357627583459235, 3.077252,0.954879,0.091774
1317357627687233137, 3.278915,1.081805,0.111100
1317357627790653268, 3.486182,1.222080,0.134105
1317357627894518095, 3.692007,1.374615,0.161635
1317357627997210296, 3.889622,1.547390,0.195071
1317357628098068320, 4.079845,1.745346,0.236108
1317357628208963366, 4.269001,1.953374,0.284784
1317357628309771572, 4.455120,2.162930,0.341963
1317357628411948678, 4.640930,2.396495,0.408789
1317357628522800247, 4.809953,2.628781,0.484668
1317357628623536642, 4.970107,2.884543,0.568871
1317357628725218557, 5.130051,3.166344,0.662770
1317357628838209824, 5.262848,3.458786,0.764688
1317357628932188567, 5.394415,3.776525,0.871095
1317357629045615728, 5.507099,4.115070,0.979058
1317357629138836414, 5.595034,4.462064,1.083972
1317357629241713614, 5.673492,4.826059,1.182254
1317357629352753901, 5.723506,5.188174,1.270849
1317357629453511250, 5.770939,5.570781,1.347596
1317357629555375201, 5.786165,5.968244,1.412603
1317357629656922335, 5.788672,6.382257,1.466821
1317357629757938747, 5.786479,6.798061,1.510727
1317357629869050055, 5.771761,7.252726,1.548166
1317357629970832577, 5.749953,7.727230,1.579841
1317357630073311238, 5.707796,8.206647,1.605553
1317357630189350040, 5.659776,8.699659,1.624467
1317357630272665539, 5.612025,9.225378,1.638780
1317357630380694958, 5.548535,9.786424,1.649577
1317357630481693945, 5.472162,10.344046,1.657119
1317357630582438629, 5.399892,10.921930,1.662808
1317357630693381644, 5.324878,11.518423,1.665928
1317357630785097348, 5.251156,12.123851,1.666679
1317357630897412728, 5.191950,12.761364,1.665975
1317357630999656405, 5.113428,13.394384,1.664619
1317357631100496253, 5.031746,14.046159,1.663115
1317357631211479094, 4.957865,14.716649,1.661717
1317357631312166816, 4.886755,15.406308,1.660537
1317357631423014044, 4.817094,16.108592,1.659168
1317357631523823398, 4.743437,16.835422,1.657612
1317357631624906685, 4.659507,17.573689,1.656202
1317357631735767256, 4.582615,18.321369,1.654742
1317357631836883133, 4.506891,19.074050,1.653186
1317357631940497230, 4.437251,19.837830,1.652108
1317357632051397687, 4.359805,20.626070,1.650928
1317357632152256156, 4.290541,21.434610,1.649998
1317357632253063502, 4.222623,22.237187,1.649028
1317357632357508571, 4.156499,23.035351,1.648454
1317357632460214639, 4.083979,23.845192,1.648125
1317357632571091288, 4.018906,24.666615,1.648396
1317357632671953882, 3.943031,25.503322,1.648787
1317357632782764339, 3.865700,26.348325,1.648995
1317357632883570432, 3.789267,27.209091,1.649231
1317357632985161680, 3.708420,28.071409,1.649836
1317357633086023675, 3.621158,28.916662,1.650286
1317357633188372601, 3.548883,29.737882,1.650349
1317357633307934685, 3.472247,30.570005,1.650686
1317357633408973878, 3.383827,31.409600,1.650809
1317357633516299115, 3.302810,32.257720,1.650806
1317357633617183081, 3.222478,33.092326,1.650692
1317357633718676291, 3.145916,33.913768,1.650532
1317357633825821346, 3.067296,34.738931,1.650155
1317357633927605831, 2.987114,35.575511,1.649798
1317357634029901176, 2.911365,36.416083,1.649128
1317357634125404872, 2.834410,37.251054,1.648849
1317357634227961397, 2.765951,38.083914,1.648677
1317357634341859323, 2.694107,38.921169,1.648595
1317357634436406184, 2.623773,39.749030,1.648487
1317357634549462622, 2.547406,40.566261,1.648162
1317357634653869425, 2.472050,41.393477,1.647819
1317357634759062369, 2.395802,42.233082,1.647626
1317357634861302734, 2.317003,43.061764,1.647872
1317357634962573119, 2.248360,43.884435,1.648558
1317357635063483676, 2.176565,44.708666,1.649360
1317357635174989210, 2.106130,45.536832,1.650136
1317357635277137266, 2.039515,46.361615,1.651787
1317357635378253968, 1.964916,47.177643,1.653352
1317357635489146641, 1.889928,48.001182,1.655066
1317357635706810266, 1.724719,49.630679,1.657091
1317357635799860901, 1.638733,50.426644,1.657983
1317357635913707728, 1.553084,51.224745,1.659001
1317357636015751405, 1.468263,52.025985,1.659831
1317357636216050992, 1.297751,53.598324,1.661341
1317357636331795543, 1.212550,54.374791,1.661820
1317357636432871557, 1.132601,55.154563,1.662014
1317357636526030436, 1.050042,55.927576,1.662529
1317357636628607425, 0.965749,56.701596,1.662662
1317357636733626166, 0.883657,57.475050,1.663084
1317357636838266955, 0.807825,58.225186,1.663579
1317357636940202805, 0.729609,58.968915,1.663745
1317357637041695789, 0.650257,59.705558,1.663808
1317357637152668585, 0.562763,60.429901,1.663615
1317357637253695304, 0.485509,61.142977,1.662668
1317357637356463144, 0.409548,61.830046,1.660730
1317357637457454809, 0.340536,62.505017,1.657471
1317357637568553064, 0.280744,63.162728,1.652663
1317357637669433232, 0.223469,63.804389,1.646690
1317357637772132057, 0.167054,64.438835,1.639008
1317357637884100779, 0.113049,65.057135,1.628390
1317357637985274783, 0.071824,65.651148,1.614990
1317357638086134139, 0.049238,66.232987,1.597363
1317357638198864921, 0.043247,66.793779,1.575636
1317357638303645191, 0.046738,67.327864,1.549258
1317357638405058773, 0.074395,67.841136,1.517130
1317357638505912046, 0.121497,68.324095,1.476977
1317357638617441011, 0.172616,68.792200,1.430396
1317357638718405716, 0.251823,69.251605,1.375707
1317357638829667413, 0.348734,69.686522,1.310416
1317357638930539542, 0.477475,70.127209,1.234971
1317357639031581247, 0.637257,70.542615,1.151211
1317357639142493068, 0.817636,70.941094,1.059879
1317357639243502902, 1.019412,71.324394,0.962032
1317357639345491288, 1.235355,71.705287,0.863200
1317357639456421096, 1.485671,72.071814,0.768989
1317357639557441065, 1.750016,72.420174,0.680447
1317357639671316621, 2.036461,72.740292,0.596217
1317357639762354645, 2.325393,73.042957,0.516612
1317357639873210463, 2.611963,73.338189,0.442152
1317357639974241847, 2.919517,73.625523,0.372367
1317357640077947885, 3.259228,73.899730,0.308490
1317357640189294895, 3.639323,74.165893,0.251915
1317357640290414008, 4.045884,74.410994,0.203015
1317357640391443746, 4.488107,74.657445,0.161295
1317357640496307108, 4.959235,74.889875,0.127480
1317357640598435225, 5.457051,75.120570,0.100930
1317357640709715809, 5.973429,75.325566,0.080056
1317357640810837619, 6.526491,75.517639,0.064270
1317357640912021865, 7.103838,75.701072,0.052543
1317357641013138668, 7.690359,75.867278,0.044180
1317357641115044525, 8.291629,76.027073,0.037674
1317357641216191170, 8.918263,76.189155,0.032580
1317357641327337858, 9.541321,76.348714,0.028529
1317357641428350710, 10.193666,76.502914,0.025237
1317357641529357040, 10.837608,76.636520,0.022375
1317357641630308720, 11.498515,76.763954,0.019448
1317357641741428624, 12.183511,76.898467,0.016585
1317357641833669337, 12.889953,77.016627,0.014022
1317357641946805910, 13.613001,77.132402,0.011928
1317357642040870696, 14.328474,77.240960,0.010291
1317357642152035815, 15.069477,77.336700,0.008952
1317357642253009198, 15.836742,77.435240,0.007905
1317357642364227064, 16.614147,77.528271,0.007036
1317357642469998755, 17.393234,77.633328,0.006421
1317357642581515073, 18.159836,77.724691,0.005870
1317357642729448885, 18.921685,77.804064,0.005520
1317357642848492249, 19.686616,77.885981,0.005218
1317357642977747272, 20.448776,77.963029,0.004913
1317357643061786864, 21.214205,78.036442,0.004654
1317357643122399611, 21.983850,78.108357,0.004377
1317357643218212200, 22.756370,78.183527,0.004138
1317357643331351078, 23.508303,78.268090,0.004014
1317357643422284431, 24.264881,78.339349,0.003934
1317357643526421516, 25.017545,78.413660,0.003842
1317357643639943967, 25.783242,78.484800,0.003685
1317357643736850746, 26.543548,78.557002,0.003427
1317357643828664552, 27.307546,78.625972,0.003202
1317357643922335631, 28.055556,78.686063,0.002987
1317357644046192709, 28.811970,78.740473,0.002884
1317357644156088467, 29.575224,78.799465,0.002810
1317357644263458363, 30.319279,78.864624,0.002729
1317357644359727712, 31.083645,78.917462,0.002681
1317357644470859193, 31.849971,78.971346,0.002631
1317357644603970918, 32.622503,79.036551,0.002589
1317357644695797914, 33.405086,79.098967,0.002582
1317357644766627132, 34.190790,79.161957,0.002696
1317357644882863228, 34.986396,79.215006,0.002837
1317357645013276476, 35.780238,79.287232,0.003061
1317357645113305679, 36.584947,79.361264,0.003307
1317357645204198555, 37.377583,79.433189,0.003591
1317357645286405208, 38.190785,79.508547,0.003832
1317357645377203348, 39.026987,79.589025,0.004027
1317357645478741438, 39.859804,79.671803,0.004191
1317357645612477753, 40.685665,79.739533,0.004376
1317357645697641033, 41.533348,79.826311,0.004501
1317357645798769805, 42.379718,79.909042,0.004588
1317357645910263800, 43.236318,79.995029,0.004619
1317357646011350645, 44.083045,80.080760,0.004524
1317357646102278004, 44.947854,80.173191,0.004331
1317357646215904691, 45.808967,80.256047,0.004174
1317357646318472761, 46.674557,80.334514,0.004029
1317357646423745969, 47.547221,80.415665,0.003889
1317357646527158028, 48.410656,80.490710,0.003719
1317357646630258457, 49.295305,80.571673,0.003616
1317357646733833445, 50.180690,80.643864,0.003556
1317357646849129243, 51.054057,80.723469,0.003454
1317357646956482626, 51.902275,80.798774,0.003391
1317357647058468285, 52.751597,80.882259,0.003371
1317357647150743185, 53.611030,80.959749,0.003327
1317357647253827754, 54.459976,81.046728,0.003327
1317357647369973707, 55.319540,81.119971,0.003270
1317357647472783180, 56.177492,81.182497,0.003200
1317357647585961051, 57.039871,81.259826,0.003154
1317357647680184431, 57.895578,81.319696,0.003188
1317357647796536019, 58.739389,81.386872,0.003415
1317357647889102443, 59.565436,81.446063,0.003616
1317357647992090037, 60.390662,81.519965,0.003857
1317357648097602261, 61.220379,81.592682,0.004112
1317357648204158491, 62.040036,81.669573,0.004449
1317357648305322868, 62.864231,81.762149,0.004870
1317357648398448734, 63.684422,81.846383,0.005203
1317357648520814593, 64.490273,81.948241,0.005583
1317357648618858267, 65.296165,82.050318,0.005956
1317357648730198109, 66.104292,82.147507,0.006339
1317357648835982386, 66.906287,82.245932,0.006737
1317357648937205182, 67.708389,82.335984,0.007290
1317357649031472476, 68.496345,82.440993,0.008034
1317357649127052754, 69.288129,82.545873,0.008799
1317357649238986785, 70.057153,82.653492,0.009659
1317357649347639806, 70.822993,82.782067,0.010502
1317357649438651774, 71.590602,82.903353,0.011446
1317357649550179482, 72.357729,83.027871,0.012421
1317357649647710758, 73.128275,83.168841,0.013330
1317357649771670483, 73.895047,83.307827,0.014089
1317357649852579648, 74.662539,83.451784,0.015094
1317357649960857225, 75.422386,83.591601,0.016219
1317357650061938345, 76.165309,83.727560,0.017525
1317357650159872205, 76.902412,83.876588,0.019323
1317357650291199329, 77.642534,84.034892,0.021298
1317357650397426974, 78.393359,84.201465,0.023644
1317357650488418690, 79.150727,84.388090,0.026183
1317357650580107151, 79.887672,84.585662,0.028913
1317357650799308072, 81.343479,84.974958,0.035031
1317357650903575033, 82.043041,85.185320,0.038542
1317357651008999053, 82.753536,85.397563,0.042384
1317357651120096557, 83.475168,85.630951,0.046326
1317357651310134837, 84.925566,86.128034,0.054169
1317357651411852976, 85.641488,86.380679,0.058869
1317357651505020191, 86.346313,86.637546,0.063634
1317357651607539594, 87.048512,86.897347,0.067591
1317357651722553723, 87.739792,87.174666,0.071104
1317357651827346565, 88.429695,87.444727,0.074409
1317357651941420974, 89.123535,87.740120,0.077781
1317357652035067936, 89.833504,88.037237,0.081435
1317357652148544449, 90.547276,88.336792,0.085147
1317357652253301118, 91.259155,88.644583,0.088622
1317357652350224884, 91.962475,88.965451,0.091802
1317357652451950421, 92.653397,89.293391,0.094689
1317357652553816355, 93.341225,89.612544,0.097829
1317357652668048001, 94.033513,89.925147,0.100614
1317357652762303491, 94.723869,90.256896,0.103007
1317357652866783982, 95.422129,90.604950,0.105555
1317357652980103110, 96.120319,90.945139,0.108225
1317357653085355501, 96.815144,91.278212,0.111126
1317357653199997757, 97.493567,91.625319,0.114149
1317357653300910783, 98.184817,91.974527,0.117123
1317357653386863388, 98.880884,92.341591,0.120287
1317357653499673129, 99.581528,92.705959,0.122808
1317357653585849458, 100.266641,93.077188,0.125509
1317357653696858509, 100.952573,93.443113,0.128244
1317357653791264577, 101.644051,93.805048,0.131306
1317357653904924275, 102.312803,94.165815,0.134006
1317357654000104084, 102.984018,94.531013,0.136771
1317357654113305591, 103.653858,94.902190,0.139673
1317357654207478104, 104.318398,95.270146,0.142456
1317357654321705970, 104.971457,95.642874,0.145712
1317357654427225776, 105.612900,96.021055,0.148986
1317357654518832134, 106.255881,96.388969,0.151676
1317357654633853335, 106.889571,96.772889,0.154408
1317357654737437379, 107.532393,97.159083,0.156814
1317357654830603742, 108.161499,97.529586,0.158480
1317357654935093014, 108.768274,97.894968,0.160596
1317357655037908621, 109.366739,98.247653,0.162953
1317357655142707118, 109.957190,98.599502,0.165160
1317357655248498634, 110.522868,98.948760,0.167458
1317357655361953845, 111.075894,99.289852,0.169747
1317357655453791352, 111.606957,99.622302,0.171684
1317357655559109834, 112.127034,99.937759,0.173182
1317357655661997920, 112.622647,100.237837,0.174771
1317357655756297340, 113.103000,100.540415,0.176570
1317357655871505489, 113.558188,100.829693,0.178518
1317357655973381756, 113.987345,101.098210,0.180079
1317357656079641596, 114.400196,101.359267,0.181458
1317357656181733457, 114.798657,101.620718,0.183521
1317357656287003281, 115.175767,101.875094,0.186731
1317357656399730237, 115.552741,102.109099,0.190192
1317357656493272000, 115.897877,102.341139,0.194552
1317357656597197071, 116.228224,102.578211,0.199547
1317357656701256667, 116.527844,102.795725,0.204507
1317357656807775475, 116.829186,103.015592,0.209700
1317357656909079209, 117.115388,103.220594,0.215810
1317357657022158228, 117.386022,103.412272,0.223145
1317357657116601383, 117.630734,103.603629,0.232161
1317357657220388949, 117.855125,103.781095,0.243751
1317357657336950379, 118.063556,103.961849,0.257888
1317357657428462422, 118.245830,104.146642,0.275288
1317357657541415007, 118.425007,104.313275,0.295021
1317357657645860276, 118.586488,104.494007,0.318205
1317357657758267295, 118.732076,104.654490,0.341889
1317357657851264758, 118.863657,104.809636,0.366551
1317357657957814215, 118.991226,104.982696,0.392557
1317357658069208931, 119.132545,105.163536,0.421235
1317357658173832588, 119.270738,105.336491,0.452933
1317357658277047401, 119.402833,105.512185,0.488262
1317357658379968527, 119.527616,105.704929,0.527598
1317357658484311783, 119.643191,105.908679,0.572323
1317357658588195578, 119.741760,106.102254,0.618411
1317357658683197835, 119.845622,106.291432,0.667170
1317357658799297193, 119.940731,106.485743,0.717785
1317357658900287001, 120.030936,106.689821,0.769979
1317357659015712548, 120.118494,106.895475,0.825061
1317357659118011011, 120.193234,107.111462,0.883609
1317357659220609637, 120.272045,107.337361,0.946365
1317357659323930209, 120.354745,107.586508,1.012370
1317357659418622333, 120.429856,107.858044,1.083922
1317357659531240953, 120.496002,108.147777,1.157811
1317357659627468764, 120.548645,108.453669,1.231592
1317357659729008336, 120.597835,108.774761,1.304649
1317357659843721714, 120.627941,109.115525,1.375959
1317357659948379447, 120.639225,109.465977,1.442214
1317357660040234382, 120.636174,109.827459,1.504632
1317357660143008313, 120.623327,110.197472,1.562204
1317357660257452194, 120.589215,110.579474,1.614413
1317357660352682959, 120.529040,110.968957,1.661048
1317357660458965202, 120.443431,111.358798,1.702556
1317357660570264886, 120.332932,111.759213,1.738768
1317357660673344151, 120.198600,112.166350,1.770757
1317357660779925921, 120.057129,112.595552,1.799072
1317357660870835128, 119.885186,113.022847,1.824226
1317357660985862559, 119.669102,113.462116,1.846215
1317357661079238731, 119.427452,113.901881,1.865488
1317357661182598420, 119.154554,114.350258,1.881957
1317357661288453342, 118.854137,114.782909,1.895622
1317357661389635508, 118.542693,115.230290,1.906515
1317357661496135652, 118.203243,115.687984,1.914994
1317357661601729418, 117.830276,116.168244,1.921423
1317357661702781824, 117.455410,116.662645,1.926223
1317357661806449533, 117.068040,117.172092,1.930151
1317357661913554431, 116.660307,117.698410,1.933554
1317357662019118429, 116.236169,118.220296,1.936066
1317357662119958511, 115.783546,118.763257,1.938106
1317357662223703759, 115.329389,119.307235,1.939897
1317357662331041756, 114.870197,119.859268,1.941334
1317357662435765192, 114.393220,120.430165,1.942406
1317357662536751506, 113.903477,121.016170,1.943146
1317357662640678389, 113.401331,121.618037,1.943489
1317357662745926732, 112.885992,122.227547,1.943664
1317357662850771234, 112.358610,122.849065,1.943846
1317357662963363905, 111.819489,123.480496,1.944027
1317357663067866889, 111.266955,124.130815,1.944241
1317357663162671563, 110.703408,124.778385,1.944416
1317357663266504693, 110.140598,125.437120,1.944697
1317357663371412432, 109.571565,126.112118,1.944935
1317357663474872794, 108.990676,126.792751,1.945102
1317357663577312582, 108.412516,127.473121,1.945281
1317357663683172784, 107.820975,128.164739,1.945506
1317357663797241132, 107.213123,128.882153,1.945679
1317357663890585785, 106.602116,129.597916,1.946066
1317357663993137579, 105.986716,130.314327,1.946311
1317357664100168441, 105.355157,131.040230,1.946565
1317357664202789012, 104.714387,131.769008,1.946528
1317357664307004783, 104.056035,132.516445,1.946478
1317357664409439102, 103.400084,133.269845,1.946498
1317357664505860434, 102.756428,134.028832,1.946561
1317357664617496187, 102.103094,134.790190,1.946681
1317357664722708285, 101.445064,135.544531,1.946681
1317357664826331999, 100.786751,136.303756,1.946696
1317357664929960037, 100.126237,137.062550,1.946760
1317357665034661602, 99.474750,137.809184,1.946819
1317357665137555360, 98.824832,138.557719,1.946925
1317357665250922295, 98.170879,139.313692,1.947020
1317357665356266303, 97.528676,140.062034,1.947160
1317357665448540460, 96.883814,140.808544,1.947332
1317357665563117953, 96.235347,141.547695,1.947567
1317357665671356755, 95.586961,142.291632,1.947814
1317357665762732091, 94.940548,143.028909,1.948051
1317357665865447299, 94.293280,143.773677,1.948329
1317357665968967266, 93.646287,144.507880,1.948439
1317357666073401708, 93.000344,145.234586,1.948497
1317357666176956540, 92.349601,145.970829,1.948525
1317357666289943614, 91.707768,146.713981,1.948326
1317357666386937032, 91.061351,147.439751,1.948006
1317357666498547510, 90.413171,148.176276,1.947633
1317357666601606400, 89.767419,148.917167,1.947245
1317357666697142188, 89.122908,149.661499,1.946870
1317357666809524952, 88.472190,150.408622,1.946620
1317357666904854670, 87.826327,151.159616,1.946380
1317357667030540953, 87.183183,151.904951,1.946282
1317357667121508421, 86.538488,152.657417,1.946160
1317357667251174592, 85.896769,153.393216,1.946064
1317357667331921336, 85.259209,154.134199,1.946051
1317357667432866628, 84.608501,154.878495,1.946098
1317357667527614941, 83.980550,155.614484,1.946138
1317357667640090990, 83.350940,156.354490,1.946312
1317357667746436288, 82.711500,157.091338,1.946437
1317357667849090714, 82.069738,157.826341,1.946699
1317357667953379643, 81.439653,158.560339,1.946872
1317357668057605746, 80.797259,159.299221,1.947050
1317357668161784821, 80.164768,160.032604,1.947175
1317357668262795683, 79.535356,160.755817,1.947380
1317357668359304372, 78.904406,161.482554,1.947513
1317357668461714687, 78.280483,162.202898,1.947613
1317357668574836914, 77.653029,162.918046,1.947445
1317357668679339991, 77.029310,163.628654,1.947277
1317357668775399243, 76.396497,164.345755,1.947109
