#time(s),x(m),y(m),theta(m)
1317354880553871682, -0.044234,0.267206,0.870010
1317354880664720669, -0.191243,1.119264,0.000036
1317354880767974471, -0.289316,1.648888,0.000051
1317354880862357838, -0.386864,2.177737,0.000053
1317354880996253637, -0.493968,2.764696,0.000089
1317354881059946777, -0.595459,3.305057,0.000123
1317354881194202829, -0.710097,3.904987,0.000189
1317354881259318946, -0.817803,4.455764,0.000204
1317354881394015619, -0.937314,5.071560,0.000254
1317354881456716449, -1.050028,5.638677,0.000296
1317354881581461125, -1.164287,6.216438,0.000322
1317354881705225943, -1.293094,6.864153,0.000358
1317354881767827154, -1.414060,7.467690,0.000379
1317354881828486496, -1.550553,8.146740,0.000371
1317354881947481815, -1.676912,8.777167,0.000348
1317354882072433530, -1.806840,9.418092,0.000324
1317354882156854581, -1.955666,10.137491,0.000289
1317354882264989698, -2.091577,10.807643,0.000253
1317354882377165708, -2.240229,11.566235,0.000254
1317354882459002108, -2.374194,12.274632,0.000259
1317354882589519609, -2.526841,13.072192,0.000263
1317354882680878321, -2.671037,13.811817,0.000276
1317354882783846002, -2.816669,14.566504,0.000304
1317354882874997913, -2.984301,15.417179,0.000317
1317354882978388268, -3.132632,16.202346,0.000329
1317354883098734653, -3.296522,17.083763,0.000333
1317354883190683100, -3.442534,17.898386,0.000345
1317354883304236765, -3.615757,18.815809,0.000341
1317354883395374264, -3.773167,19.664187,0.000346
1317354883603918029, -3.935122,20.530604,0.000366
1317354883709457874, -4.115652,21.500725,0.000373
1317354883814106647, -4.286188,22.397527,0.000372
1317354883929518323, -4.471409,23.404873,0.000368
1317354884020812147, -4.646214,24.324370,0.000373
1317354884125018655, -4.840384,25.341530,0.000384
1317354884261826744, -5.018961,26.273906,0.000402
1317354884332915286, -5.199404,27.212269,0.000421
1317354884462209430, -5.399984,28.253316,0.000441
1317354884564619350, -5.584424,29.207205,0.000451
1317354884656114196, -5.788837,30.264583,0.000465
1317354884747377248, -5.977159,31.232804,0.000478
1317354884866004289, -6.167041,32.206712,0.000511
1317354884971831806, -6.376766,33.288002,0.000531
1317354885075275490, -6.569919,34.277949,0.000539
1317354885189246856, -6.784898,35.375448,0.000517
1317354885270374368, -6.983557,36.375912,0.000499
1317354885375388809, -7.195427,37.485826,0.000488
1317354885503356241, -7.382292,38.498446,0.000483
1317354885698919017, -7.578363,39.511713,0.000486
1317354885790412199, -7.796993,40.623997,0.000490
1317354885896425842, -7.998325,41.634361,0.000500
1317354886104863027, -8.220456,42.743058,0.000484
1317354886211214112, -8.426973,43.746317,0.000448
1317354886314111723, -8.657525,44.847024,0.000414
1317354886418951687, -8.866174,45.853203,0.000423
1317354886536083268, -9.073664,46.862622,0.000424
1317354886638430432, -9.301767,47.973144,0.000426
1317354886729821299, -9.506691,48.984686,0.000432
1317354886835873214, -9.733461,50.095608,0.000427
1317354886952102353, -9.939749,51.105666,0.000430
1317354887065594698, -10.146578,52.111877,0.000412
1317354887147153351, -10.374492,53.221760,0.000403
1317354887274672909, -10.586062,54.224243,0.000398
1317354887366049214, -10.814684,55.332469,0.000396
1317354887472328067, -11.025520,56.337638,0.000399
1317354887588298934, -11.254137,57.453703,0.000401
1317354887693412112, -11.464435,58.468285,0.000419
1317354887785341331, -11.671555,59.484930,0.000449
1317354887898219434, -11.895894,60.601718,0.000473
1317354888012311285, -12.097307,61.617997,0.000495
1317354888200991906, -12.321491,62.735855,0.000514
1317354888303318659, -12.525633,63.754941,0.000509
1317354888418879844, -12.729982,64.776044,0.000530
1317354888524152885, -12.958477,65.901022,0.000560
1317354888638842925, -13.163509,66.923298,0.000584
1317354888751078905, -13.385125,68.044838,0.000601
1317354888855232121, -13.585985,69.066233,0.000624
1317354888916396944, -13.806549,70.188294,0.000643
1317354889049927709, -14.008794,71.206335,0.000667
1317354889149325848, -14.213182,72.218579,0.000697
1317354889263314039, -14.436964,73.330443,0.000779
1317354889348467603, -14.642481,74.335456,0.000910
1317354889472343005, -14.869007,75.441265,0.001051
1317354889554879552, -15.078891,76.441727,0.001203
1317354889678520158, -15.287854,77.442733,0.001352
1317354889767836595, -15.517784,78.539925,0.001492
1317354889878611607, -15.725097,79.535617,0.001657
1317354889985469242, -15.952138,80.624631,0.001812
1317354890086702994, -16.156881,81.609545,0.001943
1317354890188910697, -16.379996,82.680799,0.002123
1317354890296942859, -16.579474,83.642886,0.002299
1317354890501722857, -16.777611,84.591697,0.002637
1317354890608644876, -16.993990,85.615247,0.002719
1317354890723884363, -17.187511,86.527841,0.002660
1317354890825393507, -17.399050,87.508032,0.002444
1317354890917720961, -17.586356,88.379511,0.002068
1317354891024515702, -17.773127,89.228441,0.001596
1317354891138200367, -17.974799,90.140011,0.001053
1317354891235469200, -18.159832,90.945121,0.000537
1317354891357495140, -18.358718,91.804243,0.000126
1317354891457375424, -18.539878,92.561603,-0.000114
1317354891577821594, -18.733740,93.366882,-0.000090
1317354891680183685, -18.909682,94.072280,0.000347
1317354891774670510, -19.080011,94.749850,0.001401
1317354891887871959, -19.261298,95.464623,0.003244
1317354891973936579, -19.420300,96.085823,0.006104
1317354892068145664, -19.587406,96.737722,0.010271
1317354892173669183, -19.733110,97.302891,0.016147
1317354892287898798, -19.874918,97.844110,0.024073
1317354892395657390, -20.025963,98.417748,0.034230
1317354892508866171, -20.155481,98.919347,0.047039
1317354892633241519, -20.286675,99.448595,0.063330
1317354892719768574, -20.396621,99.910676,0.083075
1317354892813093745, -20.510208,100.399037,0.106331
1317354892927122635, -20.603679,100.823109,0.134032
1317354893029023357, -20.695278,101.274041,0.165807
1317354893139700449, -20.770007,101.675958,0.202310
1317354893246745702, -20.837098,102.072958,0.244592
1317354893335376558, -20.898357,102.503882,0.294209
1317354893449172197, -20.943587,102.891899,0.352221
1317354893542485735, -20.980072,103.310494,0.417230
1317354893656433016, -21.001135,103.687671,0.488673
1317354893747694126, -21.010255,104.097097,0.568510
1317354893873351094, -21.005149,104.466736,0.656417
1317354893958046060, -20.983371,104.866765,0.749934
1317354894073379249, -20.951820,105.225972,0.848655
1317354894167262635, -20.908010,105.580306,0.948500
1317354894274458101, -20.841308,105.964076,1.044605
1317354894376052910, -20.761525,106.306186,1.135269
1317354894479171573, -20.657566,106.674395,1.216146
1317354894596701831, -20.546817,107.001337,1.284287
1317354894688367832, -20.408885,107.355298,1.339355
1317354894783677101, -20.269200,107.674081,1.383852
1317354894886110770, -20.096554,108.022581,1.421412
1317354894998193843, -19.922081,108.333232,1.454072
1317354895092220962, -19.729816,108.633937,1.482521
1317354895196568521, -19.493117,108.952011,1.508909
1317354895394464566, -19.260365,109.233895,1.550918
1317354895506993682, -18.983816,109.532727,1.565489
1317354895612100606, -18.714100,109.790782,1.577067
1317354895727709838, -18.397269,110.060833,1.584065
1317354895821297181, -18.093622,110.295942,1.587231
1317354895915105680, -17.773253,110.517890,1.586930
1317354896037095931, -17.401625,110.746413,1.585117
1317354896119186939, -17.044140,110.939479,1.583332
1317354896246233112, -16.629263,111.131831,1.582446
1317354896338218105, -16.232740,111.289805,1.581655
1317354896433255887, -15.778899,111.455160,1.581048
1317354896524696385, -15.348965,111.602207,1.580294
1317354896630503499, -14.900132,111.744481,1.579705
1317354896735212507, -14.385630,111.891311,1.579942
1317354896838870410, -13.896401,112.012274,1.580813
1317354896956757208, -13.387896,112.119727,1.581842
1317354897068799850, -12.805042,112.228876,1.583107
1317354897182927035, -12.256138,112.330833,1.584162
1317354897275526888, -11.629262,112.441545,1.585717
1317354897372378783, -11.039550,112.533006,1.586742
1317354897485306635, -10.429192,112.617258,1.587474
1317354897586615830, -9.741191,112.715199,1.588707
1317354897667687995, -9.098819,112.810331,1.589961
1317354897806317588, -8.375369,112.922936,1.591000
1317354897903373814, -7.701970,113.023507,1.591125
1317354898007823008, -7.014354,113.126034,1.591464
1317354898119690592, -6.242490,113.241639,1.591249
1317354898224367979, -5.527077,113.355095,1.590379
1317354898327426099, -4.727990,113.480264,1.589594
1317354898422020107, -3.992505,113.594337,1.589202
1317354898529265211, -3.252413,113.708079,1.588237
1317354898641745404, -2.430335,113.831317,1.587322
1317354898728995843, -1.673428,113.941837,1.586517
1317354898847152607, -0.831784,114.062671,1.586910
1317354898965013311, -0.058707,114.177456,1.587935
1317354899046902074, 0.720433,114.294052,1.589699
1317354899152070108, 1.583854,114.423236,1.591771
1317354899259565600, 2.373283,114.542664,1.593501
1317354899382977083, 3.246367,114.679170,1.595343
1317354899477958431, 4.041121,114.806454,1.596869
1317354899580700036, 4.916921,114.938771,1.598865
1317354899665111141, 5.714574,115.063031,1.600646
1317354899786831857, 6.509620,115.186072,1.602515
1317354899882025156, 7.379255,115.315577,1.603381
1317354899997331682, 8.166865,115.427841,1.604268
1317354900091077989, 9.030892,115.553531,1.605552
1317354900186615381, 9.816608,115.667700,1.606695
1317354900308486104, 10.600170,115.781336,1.607663
1317354900415684327, 11.454598,115.905229,1.608653
1317354900518244510, 12.227447,116.020209,1.609215
1317354900643000069, 13.073373,116.147837,1.609371
1317354900736947916, 13.839994,116.262571,1.609645
1317354900851382193, 14.679191,116.385905,1.609581
1317354900936379919, 15.438970,116.498488,1.609598
1317354901048033764, 16.195119,116.610945,1.609622
1317354901134258548, 17.024577,116.733467,1.609930
1317354901215905525, 17.775040,116.842646,1.610296
1317354901341622629, 18.592264,116.956995,1.610059
1317354901437330229, 19.332406,117.058587,1.610219
1317354901528844686, 20.142800,117.164799,1.611329
1317354901630002744, 20.876602,117.259832,1.614445
1317354901737632630, 21.606140,117.353017,1.619129
1317354901842838297, 22.404177,117.457302,1.624536
1317354901944541409, 23.117330,117.551771,1.630480
1317354902048563778, 23.883965,117.651930,1.636635
1317354902155547427, 24.563724,117.741095,1.642109
1317354902259418060, 25.303732,117.837158,1.646558
1317354902386806630, 25.971517,117.922353,1.650422
1317354902481815841, 26.636228,118.008614,1.653789
1317354902584574895, 27.364669,118.102433,1.655918
1317354902676714291, 28.024348,118.184793,1.657259
1317354902802517514, 28.747768,118.276174,1.658837
1317354903001059751, 29.398402,118.361106,1.660083
1317354903125337992, 30.110392,118.454016,1.660140
1317354903234006920, 30.754360,118.533715,1.660745
1317354903323610051, 31.395228,118.612370,1.661414
1317354903429427093, 32.096078,118.702545,1.661684
1317354903521658308, 32.731003,118.784359,1.661598
1317354903637563415, 33.427356,118.862992,1.661702
1317354903773011695, 34.064065,118.928190,1.662612
1317354903867123644, 34.769242,119.001188,1.664102
1317354903958883432, 35.415638,119.065472,1.665742
1317354904063588765, 36.065379,119.121827,1.667332
1317354904157936573, 36.784530,119.178159,1.668816
1317354904261749790, 37.445148,119.229909,1.670388
1317354904365954900, 38.183206,119.283804,1.671363
1317354904481266152, 38.862246,119.330069,1.672144
1317354904573680940, 39.625129,119.386116,1.673118
1317354904682011721, 40.323345,119.436957,1.674203
1317354904783715780, 41.026751,119.483572,1.675019
1317354904898337067, 41.808356,119.530920,1.675839
1317354904980763865, 42.522782,119.571996,1.677057
1317354905096450915, 43.313117,119.621775,1.678746
1317354905303284095, 44.032183,119.670297,1.681754
1317354905427317898, 44.751775,119.717205,1.682751
1317354905532253229, 45.540372,119.775701,1.683241
1317354905629604808, 46.256300,119.839583,1.683826
1317354905733830912, 47.040522,119.902582,1.683591
1317354905835249441, 47.753761,119.960070,1.683390
1317354905936491522, 48.537607,120.013508,1.683146
1317354906026686366, 49.256898,120.060228,1.682472
1317354906148364670, 49.979059,120.106097,1.681105
1317354906254498171, 50.777790,120.157695,1.679734
1317354906356035523, 51.506341,120.200649,1.678487
1317354906478317006, 52.313357,120.250003,1.677172
1317354906563832913, 53.049616,120.294367,1.675819
1317354906652192836, 53.865639,120.341776,1.674573
1317354906762095215, 54.612973,120.381468,1.673479
1317354906874697525, 55.365655,120.423185,1.672189
1317354906946104237, 56.199408,120.465759,1.671455
1317354907077628786, 56.961192,120.501379,1.671101
1317354907181916578, 57.806058,120.542952,1.670531
1317354907397422621, 58.579182,120.576856,1.669576
1317354907494800723, 59.435184,120.609831,1.668953
1317354907596125692, 60.219454,120.640879,1.668489
1317354907677363445, 61.009088,120.671592,1.667721
1317354907795746031, 61.884745,120.702372,1.667193
1317354907886901226, 62.686023,120.734713,1.666779
1317354907989089426, 63.571700,120.772463,1.667212
1317354908117654299, 64.381317,120.806127,1.668040
1317354908216896827, 65.276766,120.842254,1.668940
1317354908316608967, 66.094212,120.876863,1.669462
1317354908441601195, 66.912896,120.914093,1.669776
1317354908548738183, 67.814313,120.955664,1.670141
1317354908670793969, 68.635970,120.993832,1.670693
1317354908753950083, 69.542652,121.042461,1.671149
1317354908856035110, 70.370528,121.087054,1.671771
1317354908965867065, 71.284157,121.136448,1.672868
1317354909067356539, 72.115438,121.181165,1.674647
1317354909151785270, 72.946103,121.226199,1.676974
1317354909243076541, 73.860415,121.276719,1.679508
1317354909367564176, 74.691233,121.321968,1.681900
1317354909464683471, 75.603629,121.369453,1.684568
1317354909566370025, 76.430014,121.414777,1.686598
1317354909657633708, 77.336239,121.463450,1.688564
1317354909761807023, 78.158070,121.509825,1.690116
1317354909890880919, 78.977264,121.558620,1.691642
1317354909972107663, 79.874757,121.614280,1.693697
1317354910097773491, 80.685211,121.664659,1.696103
1317354910178928719, 81.571784,121.719584,1.698281
1317354910307744470, 82.373716,121.766447,1.699561
1317354910429249062, 83.172470,121.811629,1.701055
1317354910516090096, 84.046416,121.858790,1.703125
1317354910621248581, 84.836189,121.901467,1.705002
1317354910804054470, 85.699181,121.946656,1.707973
1317354910933559831, 86.479180,121.988115,1.710050
1317354911038530366, 87.332247,122.034571,1.711792
1317354911141230323, 88.102746,122.076543,1.714934
1317354911235694702, 88.867784,122.116268,1.718818
1317354911341427823, 89.703189,122.157255,1.723403
1317354911444538551, 90.459117,122.193026,1.729680
1317354911558876794, 91.286440,122.229337,1.737027
1317354911652172617, 92.035076,122.259336,1.744963
1317354911774527316, 92.855344,122.289313,1.753107
1317354911835218941, 93.597177,122.317301,1.760652
1317354911941262159, 94.335592,122.343180,1.767413
1317354912055927240, 95.147921,122.364483,1.773336
1317354912173607601, 95.885565,122.379781,1.778711
1317354912264697772, 96.695728,122.400962,1.783245
1317354912367798983, 97.427976,122.416069,1.786685
1317354912487978611, 98.230667,122.426175,1.789299
1317354912603693459, 98.956898,122.439618,1.790306
1317354912705792130, 99.680760,122.453483,1.790979
1317354912786757761, 100.472736,122.462494,1.791497
1317354912889908474, 101.190437,122.470182,1.791147
1317354912992898961, 101.977687,122.481654,1.790614
1317354913205002650, 102.690646,122.484795,1.788822
1317354913309970046, 103.474058,122.482875,1.787907
1317354913412178049, 104.183470,122.478695,1.786983
1317354913537876630, 104.889971,122.473235,1.785504
1317354913643545793, 105.663870,122.463088,1.782879
1317354913724832701, 106.365542,122.448020,1.779852
1317354913843117087, 107.135098,122.420591,1.776585
1317354913967063397, 107.833079,122.388266,1.773732
1317354914058519639, 108.598213,122.340504,1.771400
1317354914153519095, 109.292236,122.288726,1.769008
1317354914257181474, 109.984023,122.228853,1.766646
1317354914364524698, 110.741833,122.152221,1.764500
1317354914476171922, 111.427720,122.074348,1.762395
1317354914557747722, 112.178385,121.987913,1.760012
1317354914675629513, 112.858638,121.903746,1.757252
1317354914766800169, 113.601706,121.802094,1.753690
1317354914868047793, 114.272181,121.706369,1.749584
1317354914976301456, 114.940180,121.616455,1.744204
1317354915093717827, 115.667594,121.516559,1.737334
1317354915185356716, 116.325461,121.428558,1.729565
1317354915301841235, 117.045536,121.330933,1.720472
1317354915382975757, 117.695378,121.241734,1.710197
1317354915495695235, 118.404237,121.144621,1.697337
1317354915598753659, 119.043189,121.062692,1.682135
1317354915725144812, 119.676626,120.981308,1.664453
1317354915822218744, 120.368000,120.890726,1.645897
1317354915913896101, 120.991674,120.812495,1.627139
1317354916031712893, 121.672571,120.729318,1.608530
1317354916133619436, 122.286673,120.658822,1.592831
1317354916235075668, 122.895987,120.592458,1.581837
1317354916326525259, 123.561859,120.523177,1.576916
1317354916431790375, 124.163971,120.459663,1.579685
1317354916536092511, 124.820016,120.393423,1.589991
1317354916643181101, 125.410797,120.338891,1.602679
1317354916746620053, 125.996103,120.289783,1.614953
1317354916861462606, 126.632665,120.238701,1.626043
1317354916952660516, 127.206884,120.192993,1.637514
1317354917056518178, 127.834033,120.150101,1.650486
1317354917165817465, 128.399809,120.117468,1.664593
1317354917258393315, 129.017699,120.081134,1.677444
1317354917373324107, 129.574872,120.052959,1.688933
1317354917465095916, 130.128538,120.033070,1.699859
1317354917580587363, 130.733842,120.021157,1.709924
1317354917665907938, 131.281567,120.018053,1.719108
1317354917768293155, 131.879679,120.020400,1.727137
1317354917864541630, 132.419644,120.037453,1.734121
1317354917976569598, 132.955017,120.067975,1.739675
1317354918082897897, 133.540833,120.116513,1.743429
1317354918185119597, 134.070357,120.170501,1.745711
1317354918291837023, 134.650560,120.245009,1.747271
1317354918393549021, 135.175590,120.323754,1.747801
1317354918498505683, 135.751646,120.420758,1.748355
1317354918614741594, 136.273968,120.510900,1.750222
1317354918716362233, 136.795613,120.595670,1.751923
1317354918821754908, 137.368604,120.681501,1.754345
1317354918926134685, 137.886089,120.747317,1.757771
1317354919029723502, 138.452435,120.813135,1.761140
1317354919138038990, 138.963845,120.868331,1.764531
1317354919239391398, 139.523737,120.924281,1.768101
1317354919353816764, 140.028923,120.963524,1.771678
1317354919449008594, 140.581504,120.993040,1.775186
1317354919553855064, 141.081277,121.010702,1.778587
1317354919701262588, 141.627462,121.025246,1.781668
1317354919772306493, 142.119036,121.031982,1.784394
1317354919876084569, 142.605569,121.033547,1.786784
1317354919992715544, 143.135554,121.023287,1.788907
1317354920084063114, 143.614297,121.007505,1.790592
1317354920187757580, 144.136941,120.987870,1.792183
1317354920308797250, 144.607040,120.967142,1.793250
1317354920430633889, 145.073990,120.950753,1.793977
1317354920512103098, 145.587274,120.929187,1.793891
1317354920626000780, 146.049192,120.908015,1.793507
1317354920733961025, 146.555107,120.881572,1.792893
1317354920815371307, 147.012181,120.864332,1.791614
1317354920927930568, 147.520418,120.834531,1.790276
1317354921033008940, 147.989176,120.809490,1.788792
1317354921148044465, 148.467247,120.782941,1.787103
1317354921243277152, 149.001974,120.749021,1.785057
1317354921365593125, 149.494909,120.710185,1.782771
1317354921464328715, 150.045797,120.662153,1.780574
1317354921576915534, 150.556696,120.617812,1.778173
1317354921674109955, 151.126481,120.566084,1.775288
1317354921784017137, 151.651675,120.512114,1.771798
1317354921888595818, 152.181071,120.453533,1.767520
1317354922005650813, 152.768613,120.386259,1.762014
1317354922119669933, 153.307871,120.325383,1.755032
1317354922212307373, 153.905779,120.256842,1.746214
