#time(s),x(m),y(m),theta(m)
1317398079339673995, 0.000000,-0.000000,0.000000
1317398079449843883, -62.808543,6.610439,-1.018515
1317398079549899101, -58.104709,7.484359,-0.843733
1317398079649661064, -53.499550,8.337299,-0.669274
1317398079759722948, -48.502119,9.261206,-0.476630
1317398079859652042, -43.997091,10.124281,-0.301590
1317398079969841003, -39.111743,11.088155,-0.108422
1317398080069680929, -34.723660,11.979318,0.066714
1317398080179646015, -29.937111,12.956549,0.259753
1317398080279638051, -25.629794,13.863746,0.435403
1317398080379646062, -21.342821,14.773241,0.611205
1317398080489717960, -16.661949,15.790102,0.804840
1317398080589646100, -12.407814,16.733390,0.980735
1317398080699630022, -7.751124,17.786716,1.174419
1317398080799640893, -3.540916,18.747031,1.350609
1317398080899650096, 0.625204,19.720542,1.526928
1317398081009690999, 5.163660,20.822619,1.721038
1317398081109601974, 9.274380,21.818832,1.897367
1317398081219624996, 13.783634,22.908152,2.091688
1317398081319645881, 17.864575,23.883281,2.268379
1317398081429598093, 22.306984,24.978792,2.462662
1317398081529654026, 26.292903,25.992999,2.639499
1317398081629601955, 30.226765,27.005227,2.816162
1317398081739624023, 34.498425,28.149433,3.010594
1317398081839612960, 38.297241,29.155726,-3.095943
1317398081949678897, 42.399829,30.256374,-2.901614
1317398082049709081, 46.043470,31.229873,-2.725068
1317398082159647941, 49.970481,32.346163,-2.531160
1317398082259574890, 53.447147,33.344367,-2.354933
1317398082359594106, 56.845405,34.347299,-2.178515
1317398082469732046, 60.466492,35.443435,-1.984253
1317398082569617033, 63.648013,36.441585,-1.808085
1317398082679593086, 67.033596,37.511804,-1.614109
1317398082779612064, 69.955682,38.481369,-1.437702
1317398082889604091, 72.998821,39.529133,-1.243678
1317398082989825963, 75.616799,40.461495,-1.066870
1317398083089576959, 78.085485,41.373077,-0.890858
1317398083199584007, 80.629121,42.357415,-0.696712
1317398083299561023, 82.783634,43.228177,-0.520232
1317398083409584999, 84.973867,44.162707,-0.326013
1317398083509615898, 86.799639,44.988462,-0.149414
1317398083609576940, 88.464686,45.791339,0.027091
1317398083719604015, 90.111500,46.648708,0.221449
1317398083819546937, 91.435119,47.400860,0.398026
1317398083929575920, 92.698234,48.202572,0.592484
1317398084029737949, 93.664086,48.903187,0.769555
1317398084139569997, 94.528571,49.635525,0.963763
1317398084239552021, 95.128893,50.263187,1.140588
1317398084339576005, 95.550036,50.863226,1.317538
1317398084449598073, 95.803237,51.486128,1.512264
1317398084549599885, 95.845180,52.012093,1.689311
1317398084659543037, 95.683360,52.550793,1.884019
1317398084759555101, 95.350296,52.999689,2.061178
1317398084869721889, 94.778570,53.454760,2.256337
1317398084969672918, 94.071309,53.830713,2.433416
1317398085069590091, 93.183674,54.171773,2.610416
1317398085179549932, 92.000824,54.507939,2.805188
1317398085279772996, 90.732300,54.775251,2.982701
1317398085389530897, 89.129267,55.024327,-3.106118
1317398085489763975, 87.480470,55.210301,-2.928669
1317398085589530944, 85.660637,55.356179,-2.752050
1317398085699522018, 83.449012,55.476863,-2.557345
1317398085799509048, 81.265366,55.536277,-2.380355
1317398085909544944, 78.644920,55.571881,-2.185598
1317398086009665012, 76.081435,55.558231,-2.008409
1317398086119570016, 73.027443,55.512475,-1.813911
1317398086219512939, 70.062687,55.423788,-1.637073
1317398086319509029, 66.912220,55.307251,-1.460160
1317398086429521083, 63.243925,55.152136,-1.265564
1317398086529572010, 59.715021,54.980394,-1.088596
1317398086639507055, 55.622765,54.743307,-0.894132
1317398086739523887, 51.698452,54.486940,-0.717217
1317398086839589118, 47.583237,54.195341,-0.540261
1317398086949579000, 42.841622,53.820613,-0.345859
1317398087049614906, 38.346811,53.451158,-0.169061
1317398087159513950, 33.206570,53.022150,0.025184
1317398087259489059, 28.336076,52.595174,0.201870
1317398087369647026, 22.775872,52.088529,0.396581
1317398087469645023, 17.542518,51.577909,0.573359
1317398087569519996, 12.159043,51.016058,0.749984
1317398087679558992, 6.037447,50.361942,0.944649
1317398087779481887, 0.316282,49.712113,1.121470
1317398087889482975, -6.185993,48.953180,1.316202
1317398087989665985, -12.256416,48.198985,1.493607
1317398088089498043, -18.507320,47.409794,1.670448
1317398088199479103, -25.565386,46.497890,1.865343
1317398088299508094, -32.155228,45.634140,2.042643
1317398088409467935, -39.566023,44.644037,2.237607
1317398088509558916, -46.451153,43.708827,2.415134
1317398088619462966, -54.141074,42.640882,2.610122
1317398088719444036, -61.226141,41.641641,2.787570
1317398088819473028, -68.384953,40.600704,2.965162
1317398088929492950, -76.303054,39.408972,-3.122640
1317398089029623031, -83.532145,38.292695,-2.944730
1317398089139467000, -91.482277,37.011872,-2.749326
1317398089239500045, -98.713799,35.829665,-2.571062
1317398089339464902, -105.911390,34.596627,-2.392588
1317398089449558973, -113.816363,33.210358,-2.195669
1317398089549647092, -18.179646,91.116522,1.791719
1317398089659482955, -18.378749,91.977271,1.794954
1317398089759433984, -18.560107,92.736065,1.797803
1317398089869589090, -18.754180,93.542868,1.800733
1317398089969526052, -18.930314,94.249602,1.803131
1317398090069453954, -19.100829,94.928454,1.805800
1317398090179425954, -19.282314,95.644581,1.808550
1317398090279436111, -19.441490,96.266957,1.810981
1317398090389451026, -19.608777,96.920091,1.813306
1317398090489729881, -19.754641,97.486331,1.814304
1317398090589430093, -19.896603,98.028575,1.813682
1317398090699426889, -20.047813,98.603299,1.810871
1317398090799473047, -20.177473,99.105848,1.805883
1317398090909435033, -20.308810,99.636099,1.798333
1317398091009524106, -20.418876,100.099056,1.789295
1317398091119411945, -20.532587,100.588342,1.776975
1317398091219418048, -20.626160,101.013217,1.764221
1317398091329417943, -20.717859,101.465004,1.748325
1317398091429425001, -20.792669,101.867682,1.731251
1317398091529438972, -20.859833,102.265434,1.711255
1317398091639468908, -20.921159,102.697175,1.685748
1317398091739422082, -20.966438,103.085928,1.659833
1317398091849543094, -21.002963,103.505316,1.628382
1317398091949455976, -21.024049,103.883208,1.597407
1317398092059441089, -21.033179,104.293409,1.559622
1317398092159377098, -21.028068,104.663749,1.522318
1317398092269391059, -21.006266,105.064536,1.479037
1317398092369493961, -20.974680,105.424424,1.437845
1317398092469645977, -20.930822,105.779429,1.393473
1317398092579394102, -20.864048,106.163927,1.343185
1317398092679374933, -20.784177,106.506686,1.296925
1317398092789361000, -20.680105,106.875593,1.244297
1317398092889386892, -20.569235,107.203155,1.196677
1317398092999448060, -20.431153,107.557786,1.143852
1317398093099374055, -20.291316,107.877174,1.094477
1317398093209357976, -20.118481,108.226335,1.038456
1317398093309374094, -19.943818,108.537575,0.985740
1317398093409389019, -19.751343,108.838850,0.932789
1317398093519603013, -19.514385,109.157528,0.875239
1317398093619369983, -19.281379,109.439945,0.821630
1317398093729367017, -19.004529,109.739344,0.762038
1317398093829355955, -18.734519,109.997889,0.708183
1317398093939351081, -18.417342,110.268452,0.647448
1317398094039438009, -18.113364,110.504007,0.592624
1317398094139372110, -17.792645,110.726375,0.539799
1317398094249499082, -17.420612,110.955331,0.483459
1317398094349488973, -17.062736,111.148764,0.436353
1317398094459561109, -16.647407,111.341480,0.390724
1317398094559371948, -16.250451,111.499754,0.355565
1317398094669327974, -15.796115,111.665423,0.322390
1317398094769328117, -15.365712,111.812749,0.294809
1317398094869486093, -14.916390,111.955293,0.269759
1317398094979481935, -14.401326,112.102401,0.244011
1317398095079386949, -13.911563,112.223593,0.221747
1317398095179339885, -13.402503,112.331250,0.201791
1317398095289328098, -12.819014,112.440607,0.182503
1317398095389322996, -12.269510,112.542757,0.168432
1317398095499511957, -11.641951,112.653679,0.156292
1317398095599435091, -11.051595,112.745314,0.149720
1317398095699315071, -10.440571,112.829726,0.146626
1317398095809330940, -9.751820,112.927852,0.146731
1317398095909323930, -9.108747,113.023164,0.148352
1317398096019680976, -8.384507,113.135983,0.149912
1317398096119311094, -7.710374,113.236745,0.150950
1317398096219324111, -7.022007,113.339466,0.151673
1317398096329293966, -6.249301,113.455291,0.152242
1317398096429306030, -5.533107,113.568962,0.152909
1317398096539365053, -4.733149,113.694368,0.153419
1317398096639317035, -3.996861,113.808658,0.152832
1317398096739305973, -3.255962,113.922616,0.151584
1317398096849419116, -2.432987,114.046087,0.149881
1317398096949486970, -1.675254,114.156817,0.148467
1317398097059369087, -0.832691,114.277881,0.147078
1317398097159342050, -0.058771,114.392883,0.145152
1317398097259280920, 0.721219,114.509700,0.144348
1317398097369410991, 1.585582,114.639130,0.143670
1317398097469369888, 2.375873,114.758783,0.142963
1317398097579299926, 3.249909,114.895549,0.141929
1317398097679285049, 4.045530,115.023074,0.141217
1317398097789282083, 4.922286,115.155643,0.141244
1317398097889281988, 5.720809,115.280138,0.141286
1317398097989392042, 6.516723,115.403413,0.141369
1317398098099277973, 7.387307,115.533163,0.142463
1317398098199254989, 8.175775,115.645640,0.143689
1317398098309254884, 9.040745,115.771569,0.144328
1317398098409276962, 9.827319,115.885954,0.145495
1317398098509313106, 10.611736,115.999806,0.146616
1317398098619259119, 11.467096,116.123934,0.147199
1317398098719317913, 12.240788,116.239132,0.147270
1317398098829262018, 13.087637,116.367002,0.146529
1317398098929244041, 13.855095,116.481954,0.144735
1317398099039243936, 14.695207,116.605522,0.142666
1317398099139250993, 15.455816,116.718319,0.140660
1317398099239223003, 16.212790,116.830989,0.138727
1317398099349289894, 17.043152,116.953743,0.136581
1317398099449373960, 17.794434,117.063130,0.134590
1317398099559281110, 18.612550,117.177695,0.132499
1317398099659173965, 19.353500,117.279480,0.130762
1317398099769251108, 20.164777,117.385894,0.129704
1317398099869374036, 20.899380,117.481108,0.128489
1317398099969331979, 21.629714,117.574470,0.127133
1317398100079255104, 22.428622,117.678952,0.125674
1317398100179215908, 23.142553,117.773600,0.124329
1317398100289216995, 23.910024,117.873950,0.123365
1317398100389209985, 24.590525,117.963284,0.122521
1317398100499327898, 25.331341,118.059529,0.122219
1317398100599149942, 25.999854,118.144886,0.122182
1317398100699223995, 26.665290,118.231311,0.122056
1317398100809225082, 27.394526,118.325308,0.121836
1317398100909200906, 28.054925,118.407823,0.121752
1317398101019558906, 28.779134,118.499378,0.121418
1317398101119256019, 29.430478,118.584471,0.121113
1317398101229166030, 30.143245,118.677558,0.121209
1317398101329197883, 30.787915,118.757408,0.121276
1317398101429162025, 31.429483,118.836212,0.120485
1317398101539228916, 32.131098,118.926559,0.117034
1317398101639157056, 32.766715,119.008528,0.112076
1317398101749133110, 33.463828,119.087310,0.105939
1317398101849288940, 34.101232,119.152631,0.099831
1317398101959369897, 34.807178,119.225768,0.092086
1317398102059179067, 35.454280,119.290175,0.086040
1317398102159178972, 36.104730,119.346637,0.080790
1317398102269167900, 36.824665,119.403075,0.076092
1317398102369322061, 37.486003,119.454923,0.072265
1317398102479320049, 38.224867,119.508920,0.069228
1317398102579169034, 38.904648,119.555273,0.067428
1317398102689168930, 39.668364,119.611426,0.065412
1317398102789171934, 40.367341,119.662364,0.063987
1317398102889163970, 41.071515,119.709068,0.063331
1317398102999439954, 41.853973,119.756505,0.063125
1317398103099160909, 42.569178,119.797660,0.062494
1317398103209153890, 43.360375,119.847533,0.061737
1317398103309153079, 44.080226,119.896147,0.061183
1317398103409131050, 44.800603,119.943144,0.061297
1317398103519362926, 45.590060,120.001751,0.061105
1317398103619149923, 46.306769,120.065754,0.060157
1317398103729150056, 47.091847,120.128873,0.058304
1317398103829152107, 47.805865,120.186470,0.056122
1317398103939141035, 48.590565,120.240010,0.053814
1317398104039166927, 49.310641,120.286818,0.052044
1317398104139143943, 50.033590,120.332774,0.050013
1317398104249313116, 50.833193,120.384471,0.048226
1317398104349144935, 51.562539,120.427506,0.047031
1317398104459327936, 52.370435,120.476953,0.046262
1317398104559192895, 53.107497,120.521402,0.044904
1317398104669109106, 53.924411,120.568901,0.043778
1317398104769134044, 54.672560,120.608668,0.042687
1317398104869278907, 55.426063,120.650464,0.041055
1317398104979387044, 56.260726,120.693119,0.038873
1317398105079202890, 57.023341,120.728807,0.037133
1317398105189122915, 57.869130,120.770459,0.034815
1317398105289130926, 58.643097,120.804427,0.033242
1317398105399110078, 59.500033,120.837464,0.032994
1317398105499269008, 60.285158,120.868572,0.031895
1317398105599109888, 61.075654,120.899343,0.032115
1317398105709105968, 61.952266,120.930181,0.032499
1317398105809119939, 62.754419,120.962584,0.032662
1317398105919178009, 63.641062,121.000405,0.033410
1317398106019401073, 64.451562,121.034134,0.035084
1317398106129113912, 65.347988,121.070329,0.036830
1317398106229084968, 66.166327,121.105003,0.038511
1317398106329097032, 66.985904,121.142304,0.040210
1317398106439047098, 67.888304,121.183954,0.041744
1317398106539124965, 68.710858,121.222195,0.043869
1317398106649281024, 69.618529,121.270916,0.045635
1317398106749234914, 70.447308,121.315594,0.047338
1317398106859083890, 71.361934,121.365082,0.048203
1317398106959142923, 72.194122,121.409883,0.048775
1317398107059170007, 73.025693,121.455003,0.049476
1317398107169044971, 73.941003,121.505618,0.049949
1317398107269088029, 74.772727,121.550953,0.050628
1317398107379023075, 75.686119,121.598529,0.051730
1317398107479310989, 76.513406,121.643938,0.052479
1317398107589067935, 77.420620,121.692704,0.053272
1317398107689070940, 78.243347,121.739167,0.054145
1317398107789052963, 79.063435,121.788055,0.054484
1317398107899063110, 79.961907,121.843821,0.054459
1317398107999245882, 80.773245,121.894295,0.053418
1317398108109056949, 81.660786,121.949325,0.052180
1317398108209053039, 82.463593,121.996276,0.051553
1317398108309101104, 83.263218,122.041544,0.051070
1317398108419037103, 84.138118,122.088795,0.050535
1317398108519258975, 84.928752,122.131553,0.049955
1317398108629050016, 85.792686,122.176828,0.049454
1317398108729065895, 86.573536,122.218365,0.048912
1317398108838996887, 87.427534,122.264909,0.047678
1317398108939059019, 88.198874,122.306961,0.045635
1317398109039114952, 88.964746,122.346762,0.042598
1317398109149022102, 89.801063,122.387826,0.039379
1317398109249120950, 90.557816,122.423665,0.036062
1317398109359025955, 91.386041,122.460045,0.032717
1317398109459209918, 92.135494,122.490101,0.029820
1317398109569066047, 92.956657,122.520135,0.027110
1317398109669011116, 93.699299,122.548176,0.025349
1317398109769007921, 94.438520,122.574104,0.023872
1317398109879070997, 95.251735,122.595447,0.021091
1317398109979218006, 95.990184,122.610774,0.018385
1317398110089014053, 96.801231,122.631997,0.014480
1317398110188988924, 97.534278,122.647132,0.012251
1317398110299017906, 98.337845,122.657257,0.010663
1317398110398986101, 99.064869,122.670726,0.008295
1317398110499128103, 99.789520,122.684617,0.005880
1317398110608995914, 100.582360,122.693645,0.003731
1317398110709005117, 101.300844,122.701348,0.002106
1317398110818979978, 102.088953,122.712841,-0.001035
1317398110918993949, 102.802691,122.715988,-0.003229
1317398111029184103, 103.586957,122.714064,-0.007765
1317398111128999948, 104.297143,122.709876,-0.013213
1317398111228981971, 105.004415,122.704406,-0.019103
1317398111339011907, 105.779158,122.694240,-0.027962
1317398111439091920, 106.481596,122.679143,-0.038023
1317398111549127101, 107.251991,122.651662,-0.050740
1317398111649096965, 107.950734,122.619276,-0.062860
1317398111758955001, 108.716702,122.571423,-0.075684
1317398111859013080, 109.411483,122.519547,-0.086791
1317398111959144115, 110.104025,122.459560,-0.097174
1317398112069015026, 110.862662,122.382783,-0.107096
1317398112168961048, 111.549297,122.304762,-0.114984
1317398112279045104, 112.300781,122.218163,-0.122181
1317398112378962039, 112.981776,122.133836,-0.127095
1317398112489134073, 113.725655,122.031991,-0.129730
1317398112588917016, 114.396862,121.936085,-0.130902
1317398112688978910, 115.065589,121.846000,-0.132049
1317398112798954010, 115.793798,121.745914,-0.131962
1317398112898983955, 116.452382,121.657746,-0.130473
1317398113009196043, 117.173242,121.559935,-0.129759
1317398113108952999, 117.823793,121.470567,-0.127983
1317398113218939065, 118.533426,121.373270,-0.125866
1317398113318962097, 119.173075,121.291186,-0.124365
1317398113418941020, 119.807203,121.209647,-0.122155
1317398113529006004, 120.499331,121.118893,-0.117545
1317398113628945112, 121.123686,121.040514,-0.112285
1317398113738946914, 121.805326,120.957179,-0.106157
1317398113839015960, 122.420098,120.886549,-0.101332
1317398113938957929, 123.030077,120.820058,-0.097207
1317398114049021005, 123.696676,120.750647,-0.092907
1317398114148957967, 124.299444,120.687011,-0.089081
1317398114258953094, 124.956205,120.620646,-0.084728
1317398114358923912, 125.547631,120.566011,-0.081320
1317398114459085941, 126.133575,120.516809,-0.077721
1317398114568952083, 126.770832,120.465630,-0.072769
1317398114668926954, 127.345677,120.419835,-0.067370
1317398114778913974, 127.973510,120.376862,-0.060188
1317398114878925085, 128.539904,120.344167,-0.051795
1317398114989095926, 129.158469,120.307764,-0.040238
1317398115088913917, 129.716249,120.279535,-0.027954
1317398115188954114, 130.270519,120.259608,-0.015079
1317398115298909902, 130.876483,120.247674,0.001504
1317398115398967027, 131.424807,120.244564,0.019434
1317398115508955955, 132.023571,120.246915,0.041909
1317398115608917951, 132.564125,120.264000,0.063548
1317398115708894014, 133.100082,120.294580,0.084989
1317398115818923950, 133.686537,120.343210,0.107785
1317398115918890953, 134.216639,120.397301,0.126862
1317398116029107093, 134.797475,120.471950,0.143616
1317398116128880023, 135.323078,120.550845,0.153464
1317398116238957881, 135.899763,120.648033,0.156824
1317398116338898897, 136.422655,120.738346,0.151325
1317398116438916921, 136.944868,120.823277,0.139598
1317398116549053907, 137.518485,120.909271,0.125432
1317398116648926973, 138.036534,120.975211,0.113198
1317398116758816957, 138.603499,121.041154,0.100416
1317398116858896970, 139.115467,121.096455,0.087227
1317398116969033956, 139.675969,121.152511,0.070040
1317398117068907976, 140.181706,121.191829,0.053513
1317398117178860902, 140.734890,121.221401,0.037079
1317398117278862953, 141.235208,121.239096,0.023135
1317398117388855934, 141.781989,121.253668,0.007900
1317398117489075899, 142.274100,121.260417,-0.005357
1317398117588876962, 142.761164,121.261985,-0.017619
1317398117698880910, 143.291727,121.251705,-0.029306
1317398117798906087, 143.770992,121.235893,-0.039268
1317398117908869028, 144.294207,121.216221,-0.047245
1317398118009074926, 144.764819,121.195454,-0.052174
1317398118108831882, 145.232277,121.179034,-0.055391
1317398118218900918, 145.746122,121.157427,-0.057997
1317398118318847894, 146.208544,121.136215,-0.058292
1317398118428880929, 146.715011,121.109722,-0.059569
1317398118528871059, 147.172584,121.092449,-0.062720
1317398118638895988, 147.681375,121.062592,-0.065402
1317398118738822937, 148.150645,121.037503,-0.069149
1317398118838891029, 148.629238,121.010904,-0.074584
1317398118949023008, 149.164548,120.976919,-0.080439
1317398119048919916, 149.658021,120.938009,-0.085989
1317398119158813953, 150.209510,120.889886,-0.091930
1317398119258817911, 150.720966,120.845460,-0.097691
1317398119368927955, 151.291373,120.793635,-0.103832
1317398119469036102, 151.817140,120.739562,-0.109158
1317398119568861007, 152.347113,120.680870,-0.114497
1317398119678812980, 152.935297,120.613468,-0.119673
